# Freq.: 9.8120000e+09Hz; t_int: 166.54278h; (l,b) = (23.481296, -0.21550551)
     -197.499,      0.00000
     -197.126,      0.00000
     -196.753,      0.00000
     -196.380,      0.00000
     -196.007,      0.00000
     -195.634,      0.00000
     -195.261,      0.00000
     -194.888,      0.00000
     -194.515,      0.00000
     -194.142,      0.00000
     -193.769,      0.00000
     -193.396,     0.135927
     -193.023,     0.301761
     -192.650,     0.750136
     -192.277,      1.11414
     -191.904,      1.15639
     -191.531,      1.00382
     -191.158,     0.915396
     -190.785,     0.869604
     -190.411,     0.548617
     -190.038,    -0.215777
     -189.665,     -1.13007
     -189.292,     -1.67701
     -188.919,     -1.57066
     -188.546,    -0.895974
     -188.173,    0.0998924
     -187.800,      1.22908
     -187.427,      2.38357
     -187.054,      3.41053
     -186.681,      4.03998
     -186.308,      3.99880
     -185.935,      3.21009
     -185.562,      1.86350
     -185.189,     0.325530
     -184.816,    -0.993611
     -184.443,     -1.79104
     -184.070,     -2.01400
     -183.697,     -1.82225
     -183.324,     -1.33272
     -182.951,    -0.452246
     -182.578,     0.958684
     -182.205,      2.79902
     -181.832,      4.66553
     -181.459,      6.03286
     -181.086,      6.46565
     -180.713,      5.78797
     -180.340,      4.23036
     -179.967,      2.42830
     -179.593,      1.12041
     -179.220,     0.691221
     -178.847,     0.947274
     -178.474,      1.33097
     -178.101,      1.35141
     -177.728,     0.858814
     -177.355,    0.0288480
     -176.982,    -0.832444
     -176.609,     -1.50136
     -176.236,     -1.91568
     -175.863,     -2.09175
     -175.490,     -2.06020
     -175.117,     -1.93370
     -174.744,     -1.92279
     -174.371,     -2.14313
     -173.998,     -2.43576
     -173.625,     -2.48835
     -173.252,     -2.13168
     -172.879,     -1.46343
     -172.506,    -0.729441
     -172.133,    -0.180125
     -171.760,   -0.0527060
     -171.387,    -0.582398
     -171.014,     -1.87038
     -170.641,     -3.67092
     -170.268,     -5.37633
     -169.895,     -6.31516
     -169.522,     -6.15183
     -169.149,     -5.07976
     -168.775,     -3.65668
     -168.402,     -2.41000
     -168.029,     -1.53935
     -167.656,    -0.930044
     -167.283,    -0.392377
     -166.910,     0.112317
     -166.537,     0.443078
     -166.164,     0.464929
     -165.791,     0.246300
     -165.418,    0.0103717
     -165.045,    -0.130681
     -164.672,    -0.316375
     -164.299,    -0.749103
     -163.926,     -1.40888
     -163.553,     -2.01531
     -163.180,     -2.23699
     -162.807,     -1.89690
     -162.434,     -1.05364
     -162.061,    0.0102814
     -161.688,     0.924622
     -161.315,      1.48498
     -160.942,      1.78818
     -160.569,      2.06540
     -160.196,      2.40963
     -159.823,      2.70935
     -159.450,      2.80451
     -159.077,      2.67091
     -158.704,      2.48647
     -158.331,      2.50337
     -157.957,      2.78127
     -157.584,      3.06407
     -157.211,      3.00971
     -156.838,      2.54040
     -156.465,      1.91177
     -156.092,      1.47282
     -155.719,      1.42032
     -155.346,      1.74004
     -154.973,      2.26496
     -154.600,      2.72716
     -154.227,      2.81397
     -153.854,      2.31489
     -153.481,      1.31555
     -153.108,     0.234738
     -152.735,    -0.412431
     -152.362,    -0.359693
     -151.989,     0.258096
     -151.616,      1.06535
     -151.243,      1.74488
     -150.870,      2.19721
     -150.497,      2.45229
     -150.124,      2.48815
     -149.751,      2.17829
     -149.378,      1.40008
     -149.005,     0.178091
     -148.632,     -1.21796
     -148.259,     -2.27420
     -147.886,     -2.45046
     -147.513,     -1.57996
     -147.139,   -0.0971385
     -146.766,      1.20879
     -146.393,      1.73600
     -146.020,      1.42216
     -145.647,     0.636336
     -145.274,    -0.213270
     -144.901,    -0.960807
     -144.528,     -1.64619
     -144.155,     -2.32735
     -143.782,     -3.00492
     -143.409,     -3.65045
     -143.036,     -4.18332
     -142.663,     -4.44922
     -142.290,     -4.33746
     -141.917,     -3.91063
     -141.544,     -3.31623
     -141.171,     -2.56505
     -140.798,     -1.49690
     -140.425,   -0.0147739
     -140.052,      1.70146
     -139.679,      3.25877
     -139.306,      4.28055
     -138.933,      4.54619
     -138.560,      4.02608
     -138.187,      2.92434
     -137.814,      1.65165
     -137.441,     0.619064
     -137.068,   0.00169073
     -136.695,    -0.304439
     -136.321,    -0.513738
     -135.948,    -0.725651
     -135.575,    -0.852207
     -135.202,    -0.780756
     -134.829,    -0.550093
     -134.456,    -0.270082
     -134.083,     0.101916
     -133.710,     0.769346
     -133.337,      1.80965
     -132.964,      2.92351
     -132.591,      3.56982
     -132.218,      3.41946
     -131.845,      2.66969
     -131.472,      1.88601
     -131.099,      1.54468
     -130.726,      1.72376
     -130.353,      2.16514
     -129.980,      2.53140
     -129.607,      2.57513
     -129.234,      2.17756
     -128.861,      1.38925
     -128.488,     0.469905
     -128.115,    -0.220850
     -127.742,    -0.476212
     -127.369,    -0.402609
     -126.996,    -0.325454
     -126.623,    -0.554158
     -126.250,     -1.20083
     -125.876,     -2.12483
     -125.503,     -3.00978
     -125.130,     -3.54318
     -124.757,     -3.57391
     -124.384,     -3.14511
     -124.011,     -2.45755
     -123.638,     -1.82695
     -123.265,     -1.56303
     -122.892,     -1.74585
     -122.519,     -2.08388
     -122.146,     -2.04522
     -121.773,     -1.21713
     -121.400,     0.337476
     -121.027,      1.99083
     -120.654,      2.89401
     -120.281,      2.59471
     -119.908,      1.39656
     -119.535,    0.0610389
     -119.162,    -0.866865
     -118.789,     -1.41745
     -118.416,     -1.94022
     -118.043,     -2.61137
     -117.670,     -3.25468
     -117.297,     -3.59062
     -116.924,     -3.54338
     -116.551,     -3.24079
     -116.178,     -2.78753
     -115.805,     -2.18429
     -115.432,     -1.50790
     -115.058,     -1.04573
     -114.685,     -1.11980
     -114.312,     -1.77813
     -113.939,     -2.71686
     -113.566,     -3.48878
     -113.193,     -3.76252
     -112.820,     -3.46553
     -112.447,     -2.78417
     -112.074,     -2.01249
     -111.701,     -1.33663
     -111.328,    -0.768892
     -110.955,    -0.300993
     -110.582,   -0.0529740
     -110.209,    -0.185970
     -109.836,    -0.660731
     -109.463,     -1.14744
     -109.090,     -1.24448
     -108.717,    -0.816522
     -108.344,    -0.107060
     -107.971,     0.501014
     -107.598,     0.834025
     -107.225,      1.02557
     -106.852,      1.28837
     -106.479,      1.65323
     -106.106,      1.97103
     -105.733,      2.12983
     -105.360,      2.20421
     -104.987,      2.36392
     -104.614,      2.64779
     -104.240,      2.86675
     -103.867,      2.76323
     -103.494,      2.25665
     -103.121,      1.51370
     -102.748,     0.807007
     -102.375,     0.345790
     -102.002,     0.218120
     -101.629,     0.406293
     -101.256,     0.795044
     -100.883,      1.18724
     -100.510,      1.36448
     -100.137,      1.15700
     -99.7641,     0.488781
     -99.3910,    -0.571100
     -99.0180,     -1.75942
     -98.6450,     -2.67655
     -98.2719,     -2.99482
     -97.8989,     -2.67715
     -97.5259,     -2.01435
     -97.1528,     -1.42674
     -96.7798,     -1.16383
     -96.4068,     -1.15200
     -96.0337,     -1.14116
     -95.6607,    -0.994966
     -95.2876,    -0.802607
     -94.9146,    -0.703051
     -94.5416,    -0.645768
     -94.1685,    -0.383653
     -93.7955,     0.251857
     -93.4225,      1.07195
     -93.0494,      1.58246
     -92.6764,      1.35246
     -92.3034,     0.342795
     -91.9303,     -1.07461
     -91.5573,     -2.36040
     -91.1843,     -3.10596
     -90.8112,     -3.20226
     -90.4382,     -2.81738
     -90.0652,     -2.26196
     -89.6921,     -1.83051
     -89.3191,     -1.63586
     -88.9461,     -1.52179
     -88.5730,     -1.20913
     -88.2000,    -0.612698
     -87.8270,   0.00584846
     -87.4539,     0.245709
     -87.0809,   -0.0731298
     -86.7078,    -0.746836
     -86.3348,     -1.35259
     -85.9618,     -1.57275
     -85.5887,     -1.36205
     -85.2157,    -0.823195
     -84.8427,  -0.00974389
     -84.4696,      1.08047
     -84.0966,      2.34667
     -83.7236,      3.47575
     -83.3505,      4.03407
     -82.9775,      3.72847
     -82.6045,      2.61449
     -82.2314,      1.04724
     -81.8584,    -0.546067
     -81.4854,     -1.82925
     -81.1123,     -2.59246
     -80.7393,     -2.76802
     -80.3663,     -2.46732
     -79.9932,     -1.97056
     -79.6202,     -1.59272
     -79.2472,     -1.45497
     -78.8741,     -1.37854
     -78.5011,     -1.08372
     -78.1281,    -0.490729
     -77.7550,     0.253188
     -77.3820,     0.992591
     -77.0089,      1.66471
     -76.6359,      2.18789
     -76.2629,      2.39454
     -75.8898,      2.14124
     -75.5168,      1.44349
     -75.1438,     0.482299
     -74.7707,    -0.490391
     -74.3977,     -1.24025
     -74.0247,     -1.59111
     -73.6516,     -1.45090
     -73.2786,    -0.843034
     -72.9056,    0.0838112
     -72.5325,      1.09555
     -72.1595,      1.95799
     -71.7865,      2.51792
     -71.4134,      2.72283
     -71.0404,      2.59499
     -70.6674,      2.21462
     -70.2943,      1.70152
     -69.9213,      1.16490
     -69.5482,     0.671513
     -69.1752,     0.293508
     -68.8022,     0.174641
     -68.4291,     0.475053
     -68.0561,      1.18539
     -67.6831,      2.01252
     -67.3100,      2.52641
     -66.9370,      2.48403
     -66.5640,      2.02754
     -66.1909,      1.55875
     -65.8179,      1.41497
     -65.4449,      1.63744
     -65.0718,      1.97384
     -64.6988,      2.05395
     -64.3258,      1.62456
     -63.9527,     0.727407
     -63.5797,    -0.302988
     -63.2067,     -1.05971
     -62.8336,     -1.35944
     -62.4606,     -1.35412
     -62.0876,     -1.35098
     -61.7145,     -1.54984
     -61.3415,     -1.94822
     -60.9685,     -2.38736
     -60.5954,     -2.60239
     -60.2224,     -2.30028
     -59.8493,     -1.32052
     -59.4763,     0.219449
     -59.1033,      1.91896
     -58.7302,      3.23688
     -58.3572,      3.73504
     -57.9842,      3.33347
     -57.6111,      2.38414
     -57.2381,      1.44685
     -56.8651,     0.951180
     -56.4920,      1.02880
     -56.1190,      1.57632
     -55.7460,      2.40429
     -55.3729,      3.31334
     -54.9999,      4.05747
     -54.6269,      4.33203
     -54.2538,      3.91963
     -53.8808,      2.87569
     -53.5078,      1.53075
     -53.1347,     0.314926
     -52.7617,    -0.411044
     -52.3887,    -0.440791
     -52.0156,     0.240761
     -51.6426,      1.47666
     -51.2696,      3.01366
     -50.8965,      4.54414
     -50.5235,      5.68732
     -50.1504,      6.04697
     -49.7774,      5.41942
     -49.4044,      3.96403
     -49.0313,      2.11814
     -48.6583,     0.337500
     -48.2853,     -1.08528
     -47.9122,     -2.04693
     -47.5392,     -2.57443
     -47.1662,     -2.71855
     -46.7931,     -2.49074
     -46.4201,     -1.96984
     -46.0471,     -1.44777
     -45.6740,     -1.29605
     -45.3010,     -1.57982
     -44.9280,     -1.89487
     -44.5549,     -1.72342
     -44.1819,    -0.962617
     -43.8089,   -0.0388697
     -43.4358,     0.505977
     -43.0628,     0.505341
     -42.6898,     0.262143
     -42.3167,     0.197267
     -41.9437,     0.407290
     -41.5706,     0.552958
     -41.1976,     0.178470
     -40.8246,    -0.857913
     -40.4515,     -2.25602
     -40.0785,     -3.54952
     -39.7055,     -4.48894
     -39.3324,     -5.14460
     -38.9594,     -5.66931
     -38.5864,     -6.04036
     -38.2133,     -6.05881
     -37.8403,     -5.53632
     -37.4673,     -4.45677
     -37.0942,     -3.03807
     -36.7212,     -1.68267
     -36.3482,    -0.753138
     -35.9751,    -0.273928
     -35.6021,    0.0717418
     -35.2291,     0.517546
     -34.8560,     0.859313
     -34.4830,     0.683878
     -34.1100,   -0.0882865
     -33.7369,     -1.04402
     -33.3639,     -1.66180
     -32.9908,     -1.75163
     -32.6178,     -1.51327
     -32.2448,     -1.24864
     -31.8717,     -1.06269
     -31.4987,    -0.824043
     -31.1257,    -0.367123
     -30.7526,     0.316423
     -30.3796,      1.08063
     -30.0066,      1.74028
     -29.6335,      2.13736
     -29.2605,      2.17359
     -28.8875,      1.87305
     -28.5144,      1.38990
     -28.1414,     0.904510
     -27.7684,     0.536530
     -27.3953,     0.354722
     -27.0223,     0.370690
     -26.6493,     0.468237
     -26.2762,     0.428570
     -25.9032,     0.138271
     -25.5302,    -0.233052
     -25.1571,    -0.363742
     -24.7841,    -0.162696
     -24.4111,    0.0114217
     -24.0380,    -0.388737
     -23.6650,     -1.55894
     -23.2919,     -3.06846
     -22.9189,     -4.14406
     -22.5459,     -4.24609
     -22.1728,     -3.40802
     -21.7998,     -2.09581
     -21.4268,    -0.835302
     -21.0537,    0.0226296
     -20.6807,     0.337870
     -20.3077,     0.168312
     -19.9346,    -0.264295
     -19.5616,    -0.693215
     -19.1886,    -0.942789
     -18.8155,    -0.950303
     -18.4425,    -0.691343
     -18.0695,    -0.144037
     -17.6964,     0.658580
     -17.3234,      1.57003
     -16.9504,      2.34838
     -16.5773,      2.75475
     -16.2043,      2.67593
     -15.8313,      2.18473
     -15.4582,      1.47920
     -15.0852,     0.752246
     -14.7121,     0.112305
     -14.3391,    -0.402916
     -13.9661,    -0.772184
     -13.5930,    -0.950213
     -13.2200,    -0.875666
     -12.8470,    -0.529994
     -12.4739,   0.00253031
     -12.1009,     0.512437
     -11.7279,     0.709527
     -11.3548,     0.396504
     -10.9818,    -0.302560
     -10.6088,    -0.938648
     -10.2357,     -1.05450
     -9.86270,    -0.505061
     -9.48966,     0.517462
     -9.11663,      1.66853
     -8.74359,      2.63532
     -8.37056,      3.27765
     -7.99752,      3.71002
     -7.62449,      4.20443
     -7.25145,      4.91634
     -6.87842,      5.69981
     -6.50538,      6.22490
     -6.13235,      6.25459
     -5.75931,      5.78680
     -5.38628,      4.96965
     -5.01325,      3.93943
     -4.64021,      2.77152
     -4.26718,      1.56625
     -3.89414,     0.513280
     -3.52111,    -0.152294
     -3.14807,    -0.224100
     -2.77504,     0.389906
     -2.40200,      1.52002
     -2.02897,      2.66434
     -1.65593,      3.19612
     -1.28290,      2.72415
    -0.909863,      1.27874
    -0.536828,    -0.749066
    -0.163794,     -2.75032
     0.209241,     -4.08578
     0.582276,     -4.37902
     0.955311,     -3.75226
      1.32835,     -2.70826
      1.70138,     -1.70422
      2.07441,    -0.875239
      2.44745,    -0.186166
      2.82048,     0.287371
      3.19352,     0.375708
      3.56655,    0.0600555
      3.93959,    -0.456525
      4.31262,    -0.962018
      4.68566,     -1.44061
      5.05869,     -2.02846
      5.43173,     -2.80066
      5.80476,     -3.61783
      6.17780,     -4.16288
      6.55083,     -4.12789
      6.92387,     -3.39210
      7.29690,     -2.07728
      7.66994,    -0.522386
      8.04297,     0.779773
      8.41601,      1.36528
      8.78904,      1.09126
      9.16207,     0.274583
      9.53511,    -0.543527
      9.90814,     -1.01924
      10.2812,     -1.17637
      10.6542,     -1.20621
      11.0272,     -1.24768
      11.4003,     -1.40139
      11.7733,     -1.77896
      12.1464,     -2.37449
      12.5194,     -2.92681
      12.8924,     -3.02850
      13.2655,     -2.42638
      13.6385,     -1.21613
      14.0115,     0.252548
      14.3846,      1.62059
      14.7576,      2.63211
      15.1306,      3.07144
      15.5037,      2.75531
      15.8767,      1.69319
      16.2497,     0.220638
      16.6228,     -1.09998
      16.9958,     -1.76745
      17.3688,     -1.62129
      17.7419,    -0.921807
      18.1149,    -0.142316
      18.4879,     0.381366
      18.8610,     0.612877
      19.2340,     0.641396
      19.6070,     0.437652
      19.9801,    -0.109027
      20.3531,    -0.912825
      20.7262,     -1.56806
      21.0992,     -1.61987
      21.4722,    -0.978829
      21.8453,   -0.0268124
      22.2183,     0.690574
      22.5913,     0.857785
      22.9644,     0.535960
      23.3374,    0.0214593
      23.7104,    -0.423995
      24.0835,    -0.765902
      24.4565,     -1.16184
      24.8295,     -1.75047
      25.2026,     -2.49539
      25.5756,     -3.20602
      25.9486,     -3.63155
      26.3217,     -3.53397
      26.6947,     -2.79528
      27.0677,     -1.57651
      27.4408,    -0.365165
      27.8138,     0.254648
      28.1868,  -0.00535238
      28.5599,    -0.937728
      28.9329,     -2.01784
      29.3059,     -2.76576
      29.6790,     -2.98910
      30.0520,     -2.77554
      30.4251,     -2.28770
      30.7981,     -1.58068
      31.1711,    -0.679169
      31.5442,     0.197470
      31.9172,     0.669418
      32.2902,     0.573186
      32.6633,     0.228821
      33.0363,     0.227737
      33.4093,     0.964429
      33.7824,      2.40544
      34.1554,      4.21068
      34.5284,      5.91068
      34.9015,      7.00571
      35.2745,      7.15520
      35.6475,      6.42229
      36.0206,      5.25653
      36.3936,      4.15401
      36.7666,      3.33208
      37.1397,      2.70325
      37.5127,      2.09339
      37.8857,      1.45535
      38.2588,     0.904979
      38.6318,     0.622221
      39.0049,     0.761773
      39.3779,      1.38805
      39.7509,      2.36250
      40.1240,      3.28528
      40.4970,      3.69425
      40.8700,      3.43711
      41.2431,      2.81868
      41.6161,      2.29816
      41.9891,      2.02380
      42.3622,      1.71964
      42.7352,      1.06207
      43.1082,     0.109499
      43.4813,    -0.716498
      43.8543,     -1.03887
      44.2273,    -0.797227
      44.6004,    -0.121106
      44.9734,     0.890259
      45.3464,      2.16064
      45.7195,      3.53178
      46.0925,      4.80249
      46.4655,      5.85135
      46.8386,      6.67001
      47.2116,      7.31228
      47.5847,      7.85362
      47.9577,      8.39473
      48.3307,      9.07100
      48.7038,      9.98468
      49.0768,      11.0579
      49.4498,      11.9770
      49.8229,      12.3695
      50.1959,      12.0985
      50.5689,      11.4126
      50.9420,      10.8186
      51.3150,      10.7711
      51.6880,      11.3881
      52.0611,      12.3915
      52.4341,      13.3365
      52.8071,      13.9357
      53.1802,      14.1654
      53.5532,      14.1120
      53.9262,      13.8255
      54.2993,      13.3402
      54.6723,      12.7642
      55.0453,      12.2898
      55.4184,      12.1001
      55.7914,      12.2634
      56.1644,      12.7183
      56.5375,      13.3449
      56.9105,      14.0306
      57.2836,      14.6954
      57.6566,      15.3064
      58.0296,      15.8463
      58.4027,      16.2267
      58.7757,      16.2801
      59.1487,      15.9218
      59.5218,      15.2951
      59.8948,      14.6820
      60.2678,      14.2664
      60.6409,      14.0236
      61.0139,      13.8075
      61.3869,      13.4740
      61.7600,      12.9171
      62.1330,      12.0808
      62.5060,      11.0242
      62.8791,      9.94080
      63.2521,      9.03027
      63.6251,      8.35976
      63.9982,      7.88622
      64.3712,      7.56188
      64.7442,      7.36582
      65.1173,      7.26923
      65.4903,      7.21110
      65.8633,      7.08910
      66.2364,      6.76005
      66.6094,      6.09659
      66.9825,      5.09470
      67.3555,      3.91381
