# Freq.: 9.8120000e+09Hz; t_int: 166.69066h; (l,b) = (26.560215, -0.19709272)
     -197.370,      0.00000
     -196.997,      0.00000
     -196.624,      0.00000
     -196.251,      0.00000
     -195.878,      0.00000
     -195.505,      0.00000
     -195.132,      0.00000
     -194.759,      0.00000
     -194.386,      0.00000
     -194.013,      0.00000
     -193.640,      0.00000
     -193.267,    -0.962602
     -192.894,     -1.69601
     -192.521,     -2.02381
     -192.148,     -2.28231
     -191.775,     -2.73790
     -191.402,     -3.32854
     -191.029,     -3.65414
     -190.656,     -3.29378
     -190.283,     -2.18734
     -189.910,    -0.684283
     -189.537,     0.779803
     -189.164,      1.99017
     -188.791,      2.92935
     -188.418,      3.55737
     -188.045,      3.74530
     -187.672,      3.43588
     -187.299,      2.75671
     -186.926,      1.90618
     -186.553,     0.990103
     -186.180,    0.0317467
     -185.807,    -0.898360
     -185.434,     -1.61895
     -185.061,     -1.89775
     -184.688,     -1.55515
     -184.315,    -0.543893
     -183.942,     0.986745
     -183.569,      2.65510
     -183.196,      3.94978
     -182.822,      4.50564
     -182.449,      4.34129
     -182.076,      3.81502
     -181.703,      3.34717
     -181.330,      3.16617
     -180.957,      3.22227
     -180.584,      3.24217
     -180.211,      2.89544
     -179.838,      2.02942
     -179.465,     0.797040
     -179.092,    -0.469682
     -178.719,     -1.52086
     -178.346,     -2.33319
     -177.973,     -3.06250
     -177.600,     -3.89531
     -177.227,     -4.86055
     -176.854,     -5.67801
     -176.481,     -5.83153
     -176.108,     -4.92786
     -175.735,     -3.05845
     -175.362,    -0.830885
     -174.989,     0.926790
     -174.616,      1.55112
     -174.243,     0.850588
     -173.870,    -0.764725
     -173.497,     -2.46603
     -173.124,     -3.49787
     -172.751,     -3.65755
     -172.378,     -3.35457
     -172.005,     -3.19953
     -171.632,     -3.50817
     -171.259,     -4.14005
     -170.886,     -4.71893
     -170.513,     -4.93828
     -170.140,     -4.66732
     -169.767,     -3.86112
     -169.394,     -2.48742
     -169.021,    -0.584991
     -168.648,      1.64149
     -168.275,      3.81645
     -167.902,      5.49412
     -167.529,      6.29623
     -167.156,      6.02425
     -166.783,      4.75046
     -166.410,      2.86668
     -166.037,     0.969355
     -165.664,    -0.433871
     -165.291,     -1.15141
     -164.918,     -1.26968
     -164.545,    -0.993682
     -164.172,    -0.584195
     -163.799,    -0.319020
     -163.426,    -0.327857
     -163.053,    -0.461781
     -162.680,    -0.463770
     -162.307,    -0.290890
     -161.934,    -0.130173
     -161.561,   -0.0570968
     -161.188,     0.144696
     -160.815,     0.687724
     -160.442,      1.40489
     -160.069,      1.82839
     -159.696,      1.64983
     -159.323,      1.00600
     -158.950,     0.278929
     -158.577,    -0.289860
     -158.204,    -0.697289
     -157.831,    -0.986472
     -157.458,     -1.14812
     -157.085,     -1.24613
     -156.712,     -1.48753
     -156.339,     -2.03957
     -155.966,     -2.79956
     -155.593,     -3.43401
     -155.220,     -3.67264
     -154.847,     -3.52960
     -154.474,     -3.22116
     -154.101,     -2.90542
     -153.728,     -2.56237
     -153.355,     -2.13788
     -152.982,     -1.71737
     -152.609,     -1.45654
     -152.235,     -1.35429
     -151.862,     -1.19349
     -151.489,    -0.740296
     -151.116,    0.0599400
     -150.743,      1.08213
     -150.370,      2.08897
     -149.997,      2.76402
     -149.624,      2.85239
     -149.251,      2.40300
     -148.878,      1.79416
     -148.505,      1.43707
     -148.132,      1.48453
     -147.759,      1.80308
     -147.386,      2.12453
     -147.013,      2.22267
     -146.640,      2.04097
     -146.267,      1.70633
     -145.894,      1.41736
     -145.521,      1.29873
     -145.148,      1.33600
     -144.775,      1.44190
     -144.402,      1.58304
     -144.029,      1.81099
     -143.656,      2.14929
     -143.283,      2.48271
     -142.910,      2.59386
     -142.537,      2.31161
     -142.164,      1.63641
     -141.791,     0.759107
     -141.418,   -0.0346522
     -141.045,    -0.524858
     -140.672,    -0.675473
     -140.299,    -0.628927
     -139.926,    -0.608249
     -139.553,    -0.790552
     -139.180,     -1.16932
     -138.807,     -1.48785
     -138.434,     -1.39541
     -138.061,    -0.768137
     -137.688,     0.143040
     -137.315,     0.929654
     -136.942,      1.35798
     -136.569,      1.45662
     -136.196,      1.34529
     -135.823,      1.06656
     -135.450,     0.583535
     -135.077,    -0.111122
     -134.704,    -0.906912
     -134.331,     -1.59849
     -133.958,     -2.00439
     -133.585,     -2.05982
     -133.212,     -1.79898
     -132.839,     -1.28888
     -132.466,    -0.616053
     -132.093,    0.0779662
     -131.720,     0.592083
     -131.347,     0.737238
     -130.974,     0.460966
     -130.601,   -0.0573105
     -130.228,    -0.458482
     -129.855,    -0.433615
     -129.482,    0.0593720
     -129.109,     0.841026
     -128.736,      1.75034
     -128.363,      2.72332
     -127.990,      3.61204
     -127.617,      4.09858
     -127.244,      3.93712
     -126.871,      3.22291
     -126.498,      2.30862
     -126.125,      1.49216
     -125.752,     0.879610
     -125.379,     0.475809
     -125.006,     0.213164
     -124.633,    -0.119930
     -124.260,    -0.743679
     -123.887,     -1.53926
     -123.514,     -1.99718
     -123.141,     -1.69972
     -122.768,    -0.797099
     -122.395,     0.135735
     -122.021,     0.681826
     -121.648,     0.882144
     -121.275,     0.959937
     -120.902,     0.960011
     -120.529,     0.835507
     -120.156,     0.784704
     -119.783,      1.25664
     -119.410,      2.54294
     -119.037,      4.43498
     -118.664,      6.30414
     -118.291,      7.48138
     -117.918,      7.59702
     -117.545,      6.68907
     -117.172,      5.10677
     -116.799,      3.32166
     -116.426,      1.75288
     -116.053,     0.682170
     -115.680,     0.249667
     -115.307,     0.434528
     -114.934,     0.987362
     -114.561,      1.45876
     -114.188,      1.44929
     -113.815,     0.895010
     -113.442,    0.0590279
     -113.069,    -0.751897
     -112.696,     -1.37724
     -112.323,     -1.73339
     -111.950,     -1.73694
     -111.577,     -1.43137
     -111.204,     -1.11421
     -110.831,     -1.16211
     -110.458,     -1.66723
     -110.085,     -2.30449
     -109.712,     -2.58014
     -109.339,     -2.20092
     -108.966,     -1.27813
     -108.593,    -0.283765
     -108.220,     0.219942
     -107.847,   -0.0447426
     -107.474,    -0.880187
     -107.101,     -1.80908
     -106.728,     -2.45023
     -106.355,     -2.69808
     -105.982,     -2.66142
     -105.609,     -2.57052
     -105.236,     -2.68906
     -104.863,     -3.14265
     -104.490,     -3.76764
     -104.117,     -4.16874
     -103.744,     -3.95794
     -103.371,     -2.99020
     -102.998,     -1.47636
     -102.625,    0.0725702
     -102.252,      1.09079
     -101.879,      1.29076
     -101.506,     0.827744
     -101.133,     0.132111
     -100.760,    -0.430873
     -100.387,    -0.756403
     -100.014,    -0.930118
     -99.6408,     -1.04586
     -99.2677,     -1.11758
     -98.8947,     -1.13828
     -98.5217,     -1.16331
     -98.1487,     -1.27305
     -97.7757,     -1.44464
     -97.4027,     -1.52412
     -97.0297,     -1.37907
     -96.6567,     -1.05054
     -96.2836,    -0.711069
     -95.9106,    -0.496030
     -95.5376,    -0.400939
     -95.1646,    -0.298388
     -94.7916,   -0.0301406
     -94.4186,     0.449967
     -94.0456,     0.976035
     -93.6726,      1.26922
     -93.2995,      1.20607
     -92.9265,     0.980473
     -92.5535,     0.948094
     -92.1805,      1.28212
     -91.8075,      1.79480
     -91.4345,      2.12083
     -91.0615,      2.06755
     -90.6885,      1.75516
     -90.3154,      1.42142
     -89.9424,      1.16113
     -89.5694,     0.905890
     -89.1964,     0.581916
     -88.8234,     0.175521
     -88.4504,    -0.309956
     -88.0774,    -0.815516
     -87.7044,     -1.14784
     -87.3313,     -1.08889
     -86.9583,    -0.635722
     -86.5853,   -0.0413086
     -86.2123,     0.404929
     -85.8393,     0.552468
     -85.4663,     0.357858
     -85.0933,    -0.178411
     -84.7203,    -0.973527
     -84.3472,     -1.83317
     -83.9742,     -2.53425
     -83.6012,     -2.94534
     -83.2282,     -3.06685
     -82.8552,     -2.97426
     -82.4822,     -2.73796
     -82.1092,     -2.38723
     -81.7362,     -1.91799
     -81.3632,     -1.31416
     -80.9901,    -0.593254
     -80.6171,     0.108465
     -80.2441,     0.508077
     -79.8711,     0.345788
     -79.4981,    -0.350583
     -79.1251,     -1.24205
     -78.7521,     -1.97265
     -78.3791,     -2.40590
     -78.0060,     -2.53420
     -77.6330,     -2.32403
     -77.2600,     -1.81254
     -76.8870,     -1.25771
     -76.5140,    -0.990469
     -76.1410,     -1.10779
     -75.7680,     -1.42759
     -75.3950,     -1.73808
     -75.0219,     -1.98094
     -74.6489,     -2.18433
     -74.2759,     -2.33399
     -73.9029,     -2.37488
     -73.5299,     -2.27288
     -73.1569,     -1.99437
     -72.7839,     -1.43615
     -72.4109,    -0.452603
     -72.0378,     0.962870
     -71.6648,      2.49734
     -71.2918,      3.60699
     -70.9188,      3.89915
     -70.5458,      3.42650
     -70.1728,      2.55704
     -69.7998,      1.62432
     -69.4268,     0.812338
     -69.0537,     0.302158
     -68.6807,     0.299419
     -68.3077,     0.801183
     -67.9347,      1.43522
     -67.5617,      1.68391
     -67.1887,      1.29835
     -66.8157,     0.435775
     -66.4427,    -0.577785
     -66.0696,     -1.49868
     -65.6966,     -2.18545
     -65.3236,     -2.54345
     -64.9506,     -2.57002
     -64.5776,     -2.39232
     -64.2046,     -2.15976
     -63.8316,     -1.91432
     -63.4586,     -1.64985
     -63.0855,     -1.49108
     -62.7125,     -1.67249
     -62.3395,     -2.22850
     -61.9665,     -2.77771
     -61.5935,     -2.77204
     -61.2205,     -2.00331
     -60.8475,    -0.792152
     -60.4745,     0.349071
     -60.1014,      1.15906
     -59.7284,      1.70644
     -59.3554,      2.16519
     -58.9824,      2.61759
     -58.6094,      2.97995
     -58.2364,      3.02908
     -57.8634,      2.60854
     -57.4904,      1.90084
     -57.1173,      1.38733
     -56.7443,      1.42213
     -56.3713,      1.88204
     -55.9983,      2.27742
     -55.6253,      2.14774
     -55.2523,      1.33483
     -54.8793,  -0.00442092
     -54.5063,     -1.52286
     -54.1333,     -2.82623
     -53.7602,     -3.60926
     -53.3872,     -3.77185
     -53.0142,     -3.44408
     -52.6412,     -2.86106
     -52.2682,     -2.19344
     -51.8952,     -1.51373
     -51.5222,    -0.873043
     -51.1492,    -0.314220
     -50.7761,     0.182166
     -50.4031,     0.678323
     -50.0301,      1.18560
     -49.6571,      1.62956
     -49.2841,      1.92441
     -48.9111,      2.07506
     -48.5381,      2.20679
     -48.1651,      2.49608
     -47.7920,      3.04461
     -47.4190,      3.76886
     -47.0460,      4.40993
     -46.6730,      4.71628
     -46.3000,      4.64748
     -45.9270,      4.35824
     -45.5540,      3.99159
     -45.1810,      3.58002
     -44.8079,      3.16346
     -44.4349,      2.88895
     -44.0619,      2.91890
     -43.6889,      3.26103
     -43.3159,      3.68989
     -42.9429,      3.83052
     -42.5699,      3.39867
     -42.1969,      2.44957
     -41.8238,      1.37699
     -41.4508,     0.603749
     -41.0778,     0.258616
     -40.7048,     0.163673
     -40.3318,    0.0943144
     -39.9588,  -0.00868638
     -39.5858,   -0.0494724
     -39.2128,     0.115103
     -38.8397,     0.587138
     -38.4667,      1.30972
     -38.0937,      1.97681
     -37.7207,      2.18904
     -37.3477,      1.82392
     -36.9747,      1.21988
     -36.6017,     0.901653
     -36.2287,      1.09279
     -35.8556,      1.53019
     -35.4826,      1.78099
     -35.1096,      1.68707
     -34.7366,      1.42209
     -34.3636,      1.17769
     -33.9906,     0.963912
     -33.6176,     0.731151
     -33.2446,     0.511547
     -32.8715,     0.350145
     -32.4985,     0.193871
     -32.1255,   -0.0635310
     -31.7525,    -0.460848
     -31.3795,    -0.947834
     -31.0065,     -1.46737
     -30.6335,     -2.00049
     -30.2605,     -2.49313
     -29.8875,     -2.75665
     -29.5144,     -2.51375
     -29.1414,     -1.62053
     -28.7684,    -0.238686
     -28.3954,      1.27988
     -28.0224,      2.67063
     -27.6494,      3.83575
     -27.2764,      4.66644
     -26.9034,      4.95048
     -26.5303,      4.57051
     -26.1573,      3.71559
     -25.7843,      2.75954
     -25.4113,      1.94542
     -25.0383,      1.29392
     -24.6653,     0.776533
     -24.2923,     0.417832
     -23.9193,     0.215818
     -23.5462,    0.0981923
     -23.1732,  -0.00507457
     -22.8002,    -0.121860
     -22.4272,    -0.281176
     -22.0542,    -0.542954
     -21.6812,    -0.972647
     -21.3082,     -1.60245
     -20.9352,     -2.41141
     -20.5621,     -3.32198
     -20.1891,     -4.20619
     -19.8161,     -4.89532
     -19.4431,     -5.17641
     -19.0701,     -4.80394
     -18.6971,     -3.61563
     -18.3241,     -1.73591
     -17.9511,     0.343736
     -17.5780,      1.96778
     -17.2050,      2.67475
     -16.8320,      2.42535
     -16.4590,      1.55347
     -16.0860,     0.530145
     -15.7130,    -0.274240
     -15.3400,    -0.725619
     -14.9670,    -0.950899
     -14.5939,     -1.23527
     -14.2209,     -1.78722
     -13.8479,     -2.52760
     -13.4749,     -3.15030
     -13.1019,     -3.41905
     -12.7289,     -3.31782
     -12.3559,     -2.88709
     -11.9829,     -2.09848
     -11.6098,     -1.03453
     -11.2368,   -0.0435667
     -10.8638,     0.485044
     -10.4908,     0.438446
     -10.1178,   -0.0564223
     -9.74479,    -0.878448
     -9.37177,     -1.94203
     -8.99876,     -3.03134
     -8.62575,     -3.79471
     -8.25274,     -3.99120
     -7.87972,     -3.71462
     -7.50671,     -3.33988
     -7.13370,     -3.23120
     -6.76069,     -3.46292
     -6.38768,     -3.78091
     -6.01466,     -3.83868
     -5.64165,     -3.49671
     -5.26864,     -2.89717
     -4.89563,     -2.28091
     -4.52261,     -1.80130
     -4.14960,     -1.49914
     -3.77659,     -1.34670
     -3.40358,     -1.27036
     -3.03056,     -1.19147
     -2.65755,     -1.08646
     -2.28454,    -0.983442
     -1.91153,    -0.888546
     -1.53852,    -0.751948
     -1.16550,    -0.537540
    -0.792491,    -0.295147
    -0.419479,   -0.0987913
   -0.0464664,    0.0872584
     0.326546,     0.406250
     0.699558,     0.953538
      1.07257,      1.68190
      1.44558,      2.44434
      1.81860,      3.03535
      2.19161,      3.21220
      2.56462,      2.81833
      2.93763,      1.93511
      3.31064,     0.843837
      3.68366,    -0.177792
      4.05667,    -0.989264
      4.42968,     -1.57850
      4.80269,     -2.00679
      5.17571,     -2.32614
      5.54872,     -2.46971
      5.92173,     -2.23245
      6.29474,     -1.42273
      6.66776,   -0.0872979
      7.04077,      1.38207
      7.41378,      2.40182
      7.78679,      2.55811
      8.15980,      1.89547
      8.53282,     0.877182
      8.90583,    0.0708687
      9.27884,    -0.178777
      9.65185,    0.0849044
      10.0249,     0.479716
      10.3979,     0.560028
      10.7709,     0.162237
      11.1439,    -0.515429
      11.5169,     -1.19333
      11.8899,     -1.78289
      12.2629,     -2.31609
      12.6360,     -2.70093
      13.0090,     -2.68050
      13.3820,     -2.05053
      13.7550,    -0.856001
      14.1280,     0.635437
      14.5010,      2.07840
      14.8740,      3.14082
      15.2470,      3.57240
      15.6201,      3.32015
      15.9931,      2.55903
      16.3661,      1.52432
      16.7391,     0.339556
      17.1121,    -0.916849
      17.4851,     -2.03253
      17.8581,     -2.69177
      18.2311,     -2.71918
      18.6041,     -2.21843
      18.9772,     -1.45894
      19.3502,    -0.713253
      19.7232,    -0.233455
      20.0962,    -0.266792
      20.4692,    -0.936694
      20.8422,     -2.04898
      21.2152,     -3.05733
      21.5882,     -3.32679
      21.9613,     -2.58133
      22.3343,     -1.16920
      22.7073,     0.207194
      23.0803,      1.14402
      23.4533,      1.87915
      23.8263,      2.89253
      24.1993,      4.22037
      24.5723,      5.30341
      24.9454,      5.53714
      25.3184,      4.86500
      25.6914,      3.76095
      26.0644,      2.72510
      26.4374,      1.94836
      26.8104,      1.42795
      27.1834,      1.16060
      27.5564,      1.08015
      27.9295,     0.948585
      28.3025,     0.509969
      28.6755,    -0.221735
      29.0485,    -0.906789
      29.4215,     -1.15309
      29.7945,    -0.844759
      30.1675,    -0.201889
      30.5405,     0.444094
      30.9136,     0.873194
      31.2866,      1.00084
      31.6596,     0.812288
      32.0326,     0.364387
      32.4056,    -0.179234
      32.7786,    -0.582788
      33.1516,    -0.668138
      33.5246,    -0.480329
      33.8977,    -0.328307
      34.2707,    -0.542392
      34.6437,     -1.10116
      35.0167,     -1.59274
      35.3897,     -1.66845
      35.7627,     -1.45913
      36.1357,     -1.40749
      36.5087,     -1.74577
      36.8818,     -2.25892
      37.2548,     -2.52210
      37.6278,     -2.29311
      38.0008,     -1.71987
      38.3738,     -1.22719
      38.7468,     -1.17785
      39.1198,     -1.59274
      39.4928,     -2.14871
      39.8658,     -2.40442
      40.2389,     -2.06899
      40.6119,     -1.17312
      40.9849,   -0.0489104
      41.3579,     0.887998
      41.7309,      1.39358
      42.1039,      1.48727
      42.4769,      1.34649
      42.8499,      1.13139
      43.2230,     0.879873
      43.5960,     0.541241
      43.9690,    0.0996427
      44.3420,    -0.360931
      44.7150,    -0.719003
      45.0880,    -0.891153
      45.4610,    -0.820863
      45.8340,    -0.467633
      46.2071,     0.119771
      46.5801,     0.778780
      46.9531,      1.37065
      47.3261,      1.88266
      47.6991,      2.30226
      48.0721,      2.48523
      48.4451,      2.29383
      48.8181,      1.81723
      49.1912,      1.34765
      49.5642,      1.17840
      49.9372,      1.46540
      50.3102,      2.16304
      50.6832,      2.96983
      51.0562,      3.40057
      51.4292,      3.06900
      51.8022,      1.97171
      52.1753,     0.494565
      52.5483,    -0.841041
      52.9213,     -1.64440
      53.2943,     -1.78189
      53.6673,     -1.38446
      54.0403,    -0.779942
      54.4133,    -0.350888
      54.7863,    -0.345406
      55.1594,    -0.734957
      55.5324,     -1.21004
      55.9054,     -1.32991
      56.2784,    -0.774237
      56.6514,     0.435824
      57.0244,      1.94010
      57.3974,      3.29881
      57.7704,      4.24375
      58.1435,      4.67048
      58.5165,      4.48989
      58.8895,      3.63509
      59.2625,      2.24678
      59.6355,     0.738096
      60.0085,    -0.456526
      60.3815,     -1.20662
      60.7545,     -1.67067
      61.1276,     -1.93487
      61.5006,     -1.77711
      61.8736,    -0.883338
      62.2466,     0.752538
      62.6196,      2.73343
      62.9926,      4.54485
      63.3656,      5.87999
      63.7386,      6.72744
      64.1116,      7.25526
      64.4847,      7.64849
      64.8577,      7.98980
      65.2307,      8.24462
      65.6037,      8.37887
      65.9767,      8.47469
      66.3497,      8.66900
      66.7227,      8.99069
      67.0957,      9.33363
      67.4688,      9.58691
