# Freq.: 9.8120000e+09Hz; t_int: 166.58678h; (l,b) = (22.930292, -0.14894518)
     -197.502,      0.00000
     -197.129,      0.00000
     -196.756,      0.00000
     -196.383,      0.00000
     -196.010,      0.00000
     -195.637,      0.00000
     -195.264,      0.00000
     -194.891,      0.00000
     -194.518,      0.00000
     -194.145,      0.00000
     -193.772,      0.00000
     -193.399,    -0.499931
     -193.026,    -0.569616
     -192.653,    -0.594970
     -192.280,    -0.782255
     -191.907,     -1.01671
     -191.534,    -0.954662
     -191.161,    -0.342524
     -190.788,     0.828092
     -190.415,      2.36416
     -190.042,      3.94607
     -189.669,      5.21052
     -189.296,      5.90784
     -188.923,      6.05496
     -188.550,      5.88598
     -188.177,      5.57289
     -187.804,      4.99420
     -187.431,      3.84426
     -187.057,      2.01785
     -186.684,    -0.119303
     -186.311,     -1.88325
     -185.938,     -2.73771
     -185.565,     -2.62661
     -185.192,     -1.86809
     -184.819,    -0.806237
     -184.446,     0.343013
     -184.073,      1.36723
     -183.700,      1.99233
     -183.327,      2.07044
     -182.954,      1.74353
     -182.581,      1.27084
     -182.208,     0.706718
     -181.835,    -0.112903
     -181.462,     -1.22199
     -181.089,     -2.26218
     -180.716,     -2.66575
     -180.343,     -2.12308
     -179.970,    -0.862651
     -179.597,     0.512795
     -179.224,      1.43752
     -178.851,      1.67173
     -178.478,      1.31324
     -178.105,     0.643160
     -177.732,   -0.0315481
     -177.359,    -0.484297
     -176.986,    -0.621444
     -176.613,    -0.438099
     -176.239,    0.0993754
     -175.866,      1.06507
     -175.493,      2.39226
     -175.120,      3.73022
     -174.747,      4.59469
     -174.374,      4.68702
     -174.001,      4.05336
     -173.628,      3.00359
     -173.255,      1.95128
     -172.882,      1.25916
     -172.509,      1.06317
     -172.136,      1.14919
     -171.763,      1.06929
     -171.390,     0.510988
     -171.017,    -0.407779
     -170.644,     -1.26006
     -170.271,     -1.74395
     -169.898,     -1.96274
     -169.525,     -2.26746
     -169.152,     -2.85483
     -168.779,     -3.53967
     -168.406,     -3.90668
     -168.033,     -3.66365
     -167.660,     -2.85861
     -167.287,     -1.79563
     -166.914,    -0.775599
     -166.541,    0.0735275
     -166.168,     0.750714
     -165.795,      1.25471
     -165.421,      1.55782
     -165.048,      1.65945
     -164.675,      1.59894
     -164.302,      1.43008
     -163.929,      1.21779
     -163.556,      1.02677
     -163.183,     0.860382
     -162.810,     0.615462
     -162.437,     0.149614
     -162.064,    -0.556217
     -161.691,     -1.28377
     -161.318,     -1.65801
     -160.945,     -1.41470
     -160.572,    -0.651429
     -160.199,     0.183139
     -159.826,     0.597648
     -159.453,     0.408387
     -159.080,    -0.172581
     -158.707,    -0.751981
     -158.334,     -1.04081
     -157.961,    -0.981843
     -157.588,    -0.700092
     -157.215,    -0.398287
     -156.842,    -0.281721
     -156.469,    -0.499397
     -156.096,     -1.05550
     -155.723,     -1.72763
     -155.350,     -2.12914
     -154.977,     -1.95669
     -154.603,     -1.23025
     -154.230,    -0.290267
     -153.857,     0.468050
     -153.484,     0.896743
     -153.111,      1.14369
     -152.738,      1.40016
     -152.365,      1.64021
     -151.992,      1.63102
     -151.619,      1.15750
     -151.246,     0.216979
     -150.873,    -0.957634
     -150.500,     -2.01832
     -150.127,     -2.64971
     -149.754,     -2.66037
     -149.381,     -2.04095
     -149.008,     -1.03199
     -148.635,    -0.114971
     -148.262,     0.208594
     -147.889,    -0.231534
     -147.516,     -1.11854
     -147.143,     -1.88904
     -146.770,     -2.15506
     -146.397,     -1.92044
     -146.024,     -1.46235
     -145.651,     -1.05301
     -145.278,    -0.760326
     -144.905,    -0.469073
     -144.532,   -0.0845609
     -144.158,     0.303669
     -143.785,     0.493650
     -143.412,     0.400008
     -143.039,     0.174922
     -142.666,    0.0988701
     -142.293,     0.374233
     -141.920,     0.994262
     -141.547,      1.73408
     -141.174,      2.25226
     -140.801,      2.28770
     -140.428,      1.85558
     -140.055,      1.26500
     -139.682,     0.889701
     -139.309,     0.878229
     -138.936,      1.07167
     -138.563,      1.17619
     -138.190,      1.00635
     -137.817,     0.600943
     -137.444,     0.119636
     -137.071,    -0.398049
     -136.698,     -1.13017
     -136.325,     -2.22879
     -135.952,     -3.48253
     -135.579,     -4.34257
     -135.206,     -4.35555
     -134.833,     -3.55675
     -134.460,     -2.44915
     -134.087,     -1.64683
     -133.714,     -1.50795
     -133.340,     -1.96501
     -132.967,     -2.59226
     -132.594,     -2.89821
     -132.221,     -2.69989
     -131.848,     -2.24683
     -131.475,     -1.92294
     -131.102,     -1.84131
     -130.729,     -1.79419
     -130.356,     -1.57639
     -129.983,     -1.26509
     -129.610,     -1.13572
     -129.237,     -1.31952
     -128.864,     -1.57976
     -128.491,     -1.47250
     -128.118,    -0.760689
     -127.745,     0.344223
     -127.372,      1.35600
     -126.999,      1.88722
     -126.626,      1.85892
     -126.253,      1.44222
     -125.880,     0.877931
     -125.507,     0.347154
     -125.134,   -0.0443159
     -124.761,    -0.246874
     -124.388,    -0.291708
     -124.015,    -0.281174
     -123.642,    -0.271763
     -123.269,    -0.182803
     -122.896,     0.114348
     -122.522,     0.618014
     -122.149,      1.15260
     -121.776,      1.50107
     -121.403,      1.52701
     -121.030,      1.16177
     -120.657,     0.381402
     -120.284,    -0.703382
     -119.911,     -1.79686
     -119.538,     -2.58210
     -119.165,     -2.94016
     -118.792,     -2.96379
     -118.419,     -2.79014
     -118.046,     -2.44514
     -117.673,     -1.81684
     -117.300,    -0.805267
     -116.927,     0.450138
     -116.554,      1.54057
     -116.181,      2.05124
     -115.808,      1.85142
     -115.435,      1.15529
     -115.062,     0.386072
     -114.689,   -0.0145464
     -114.316,     0.232190
     -113.943,      1.10169
     -113.570,      2.25374
     -113.197,      3.22596
     -112.824,      3.71874
     -112.451,      3.70411
     -112.077,      3.29168
     -111.704,      2.59884
     -111.331,      1.77585
     -110.958,      1.01226
     -110.585,     0.401618
     -110.212,    -0.134072
     -109.839,    -0.682759
     -109.466,     -1.15017
     -109.093,     -1.34053
     -108.720,     -1.22113
     -108.347,     -1.01604
     -107.974,     -1.03205
     -107.601,     -1.42713
     -107.228,     -2.08520
     -106.855,     -2.64874
     -106.482,     -2.73704
     -106.109,     -2.22198
     -105.736,     -1.30829
     -105.363,    -0.360104
     -104.990,     0.337392
     -104.617,     0.707060
     -104.244,     0.848749
     -103.871,     0.900245
     -103.498,     0.947031
     -103.125,      1.07492
     -102.752,      1.41794
     -102.379,      2.03931
     -102.006,      2.78509
     -101.633,      3.35716
     -101.259,      3.55043
     -100.886,      3.37285
     -100.513,      2.94781
     -100.140,      2.37663
     -99.7673,      1.72835
     -99.3943,      1.07952
     -99.0213,     0.459346
     -98.6482,    -0.206768
     -98.2752,    -0.977264
     -97.9022,     -1.72486
     -97.5291,     -2.19203
     -97.1561,     -2.22092
     -96.7831,     -1.86607
     -96.4100,     -1.30578
     -96.0370,    -0.717939
     -95.6640,    -0.247959
     -95.2909,   -0.0430670
     -94.9179,    -0.259261
     -94.5449,    -0.967499
     -94.1718,     -1.99019
     -93.7988,     -2.85385
     -93.4258,     -3.02319
     -93.0527,     -2.28404
     -92.6797,    -0.912921
     -92.3067,     0.541948
     -91.9336,      1.65093
     -91.5606,      2.31774
     -91.1876,      2.69546
     -90.8145,      2.95174
     -90.4415,      3.09724
     -90.0684,      2.98633
     -89.6954,      2.47118
     -89.3224,      1.58168
     -88.9493,     0.561115
     -88.5763,    -0.288223
     -88.2033,    -0.811068
     -87.8302,     -1.07449
     -87.4572,     -1.24868
     -87.0842,     -1.41477
     -86.7111,     -1.50709
     -86.3381,     -1.42851
     -85.9651,     -1.14869
     -85.5920,    -0.661900
     -85.2190,    0.0709358
     -84.8460,      1.05353
     -84.4729,      2.14123
     -84.0999,      3.05097
     -83.7269,      3.47711
     -83.3538,      3.19428
     -82.9808,      2.17038
     -82.6077,     0.723976
     -82.2347,    -0.478174
     -81.8617,    -0.777653
     -81.4886,  -0.00988522
     -81.1156,      1.35001
     -80.7426,      2.54004
     -80.3695,      3.05372
     -79.9965,      2.92537
     -79.6235,      2.56057
     -79.2504,      2.32717
     -78.8774,      2.31665
     -78.5044,      2.41130
     -78.1313,      2.45323
     -77.7583,      2.36791
     -77.3853,      2.23470
     -77.0122,      2.22432
     -76.6392,      2.39922
     -76.2662,      2.60452
     -75.8931,      2.59027
     -75.5201,      2.21707
     -75.1471,      1.56798
     -74.7740,     0.920731
     -74.4010,     0.571989
     -74.0280,     0.586211
     -73.6549,     0.705992
     -73.2819,     0.588591
     -72.9088,     0.168551
     -72.5358,    -0.246239
     -72.1628,    -0.257916
     -71.7897,     0.253677
     -71.4167,      1.01733
     -71.0437,      1.55499
     -70.6706,      1.47486
     -70.2976,     0.669073
     -69.9246,    -0.689171
     -69.5515,     -2.29763
     -69.1785,     -3.85642
     -68.8055,     -5.09246
     -68.4324,     -5.77176
     -68.0594,     -5.80185
     -67.6864,     -5.33523
     -67.3133,     -4.68242
     -66.9403,     -4.06030
     -66.5673,     -3.46327
     -66.1942,     -2.79332
     -65.8212,     -2.03213
     -65.4482,     -1.24748
     -65.0751,    -0.508687
     -64.7021,     0.132834
     -64.3290,     0.592353
     -63.9560,     0.751549
     -63.5830,     0.597672
     -63.2099,     0.367489
     -62.8369,     0.413049
     -62.4639,     0.815104
     -62.0908,      1.21464
     -61.7178,      1.16302
     -61.3448,     0.633315
     -60.9717,    0.0987892
     -60.5987,    0.0689406
     -60.2257,     0.554063
     -59.8526,     0.987044
     -59.4796,     0.681792
     -59.1066,    -0.581937
     -58.7335,     -2.34554
     -58.3605,     -3.76783
     -57.9875,     -4.14233
     -57.6144,     -3.26157
     -57.2414,     -1.47685
     -56.8684,     0.492761
     -56.4953,      1.89996
     -56.1223,      2.32300
     -55.7492,      1.82255
     -55.3762,     0.785115
     -55.0032,    -0.361610
     -54.6301,     -1.28240
     -54.2571,     -1.71546
     -53.8841,     -1.48818
     -53.5110,    -0.605234
     -53.1380,     0.701153
     -52.7650,      2.01967
     -52.3919,      2.90368
     -52.0189,      3.08321
     -51.6459,      2.62873
     -51.2728,      1.88703
     -50.8998,      1.19532
     -50.5268,     0.679708
     -50.1537,     0.360680
     -49.7807,     0.328572
     -49.4077,     0.650436
     -49.0346,      1.14682
     -48.6616,      1.44374
     -48.2886,      1.30540
     -47.9155,     0.831954
     -47.5425,     0.300917
     -47.1694,    -0.101773
     -46.7964,    -0.354930
     -46.4234,    -0.504882
     -46.0503,    -0.598766
     -45.6773,    -0.679150
     -45.3043,    -0.742797
     -44.9312,    -0.710782
     -44.5582,    -0.532234
     -44.1852,    -0.331535
     -43.8121,    -0.383003
     -43.4391,    -0.901734
     -43.0661,     -1.84566
     -42.6930,     -2.88809
     -42.3200,     -3.59154
     -41.9470,     -3.68364
     -41.5739,     -3.21767
     -41.2009,     -2.48208
     -40.8279,     -1.78934
     -40.4548,     -1.33005
     -40.0818,     -1.09150
     -39.7088,    -0.843157
     -39.3357,    -0.321380
     -38.9627,     0.457916
     -38.5896,      1.13245
     -38.2166,      1.32744
     -37.8436,      1.02146
     -37.4705,     0.531441
     -37.0975,     0.193621
     -36.7245,     0.122984
     -36.3514,     0.225790
     -35.9784,     0.355197
     -35.6054,     0.475910
     -35.2323,     0.730821
     -34.8593,      1.30679
     -34.4863,      2.20165
     -34.1132,      3.18767
     -33.7402,      4.01650
     -33.3672,      4.55233
     -32.9941,      4.68831
     -32.6211,      4.29168
     -32.2481,      3.33819
     -31.8750,      2.03206
     -31.5020,     0.726621
     -31.1290,    -0.231759
     -30.7559,    -0.595797
     -30.3829,    -0.311606
     -30.0098,     0.385372
     -29.6368,      1.06148
     -29.2638,      1.36922
     -28.8907,      1.22603
     -28.5177,     0.724908
     -28.1447,   -0.0200274
     -27.7716,    -0.894694
     -27.3986,     -1.75581
     -27.0256,     -2.47086
     -26.6525,     -2.96018
     -26.2795,     -3.17079
     -25.9065,     -3.05826
     -25.5334,     -2.62577
     -25.1604,     -1.94085
     -24.7874,     -1.08864
     -24.4143,    -0.145696
     -24.0413,     0.767456
     -23.6683,      1.44884
     -23.2952,      1.72559
     -22.9222,      1.64398
     -22.5492,      1.46436
     -22.1761,      1.37298
     -21.8031,      1.25347
     -21.4300,     0.846395
     -21.0570,    0.0939982
     -20.6840,    -0.774766
     -20.3109,     -1.47852
     -19.9379,     -1.91334
     -19.5649,     -2.14745
     -19.1918,     -2.26322
     -18.8188,     -2.25562
     -18.4458,     -2.06567
     -18.0727,     -1.65548
     -17.6997,     -1.03330
     -17.3267,    -0.261049
     -16.9536,     0.520330
     -16.5806,      1.12032
     -16.2076,      1.42201
     -15.8345,      1.46174
     -15.4615,      1.33071
     -15.0885,      1.02738
     -14.7154,     0.506734
     -14.3424,    -0.133118
     -13.9694,    -0.652756
     -13.5963,    -0.913561
     -13.2233,     -1.02277
     -12.8502,     -1.18379
     -12.4772,     -1.45797
     -12.1042,     -1.70025
     -11.7311,     -1.68364
     -11.3581,     -1.27218
     -10.9851,    -0.521629
     -10.6120,     0.346659
     -10.2390,      1.07099
     -9.86597,      1.47076
     -9.49294,      1.49941
     -9.11990,      1.27038
     -8.74687,      1.06590
     -8.37383,      1.21567
     -8.00080,      1.81637
     -7.62776,      2.54167
     -7.25473,      2.83750
     -6.88169,      2.39126
     -6.50866,      1.38711
     -6.13562,     0.286686
     -5.76259,    -0.571439
     -5.38955,     -1.12499
     -5.01652,     -1.42720
     -4.64348,     -1.43230
     -4.27045,    -0.987542
     -3.89741,   -0.0613948
     -3.52438,      1.04116
     -3.15134,      1.79650
     -2.77831,      1.89596
     -2.40527,      1.53108
     -2.03224,      1.14565
     -1.65920,     0.912928
     -1.28617,     0.582802
    -0.913135,    -0.122447
    -0.540100,     -1.09433
    -0.167066,     -1.90338
     0.205969,     -2.19405
     0.579004,     -1.94365
     0.952039,     -1.41167
      1.32507,    -0.935190
      1.69811,    -0.744853
      2.07114,    -0.878108
      2.44418,     -1.21391
      2.81721,     -1.58912
      3.19025,     -1.89610
      3.56328,     -2.09313
      3.93632,     -2.16520
      4.30935,     -2.12509
      4.68239,     -2.05535
      5.05542,     -2.07444
      5.42846,     -2.19625
      5.80149,     -2.24884
      6.17453,     -1.96149
      6.54756,     -1.12167
      6.92060,     0.275389
      7.29363,      1.90860
      7.66666,      3.22009
      8.03970,      3.80196
      8.41273,      3.73819
      8.78577,      3.49137
      9.15880,      3.45440
      9.53184,      3.67248
      9.90487,      3.96103
      10.2779,      4.14950
      10.6509,      4.14828
      11.0240,      3.89450
      11.3970,      3.35609
      11.7700,      2.56508
      12.1431,      1.58391
      12.5161,     0.471269
      12.8892,    -0.655427
      13.2622,     -1.53661
      13.6352,     -1.83677
      14.0083,     -1.39062
      14.3813,    -0.416621
      14.7543,     0.553208
      15.1274,     0.994317
      15.5004,     0.684948
      15.8734,    -0.192670
      16.2465,     -1.13778
      16.6195,     -1.61450
      16.9925,     -1.45511
      17.3656,     -1.01973
      17.7386,    -0.846656
      18.1116,     -1.12087
      18.4847,     -1.53419
      18.8577,     -1.61752
      19.2307,     -1.13321
      19.6038,    -0.215608
      19.9768,     0.728784
      20.3498,      1.24938
      20.7229,      1.08751
      21.0959,     0.286187
      21.4690,    -0.838478
      21.8420,     -1.78414
      22.2150,     -2.03266
      22.5881,     -1.33617
      22.9611,    0.0633860
      23.3341,      1.51979
      23.7072,      2.35548
      24.0802,      2.24584
      24.4532,      1.34800
      24.8263,     0.135854
      25.1993,    -0.879353
      25.5723,     -1.36200
      25.9454,     -1.25802
      26.3184,    -0.801694
      26.6914,    -0.381105
      27.0645,    -0.266334
      27.4375,    -0.401527
      27.8105,    -0.526656
      28.1836,    -0.537834
      28.5566,    -0.610059
      28.9296,    -0.889748
      29.3027,     -1.19481
      29.6757,     -1.14797
      30.0488,    -0.554824
      30.4218,     0.428568
      30.7948,      1.44366
      31.1679,      2.14873
      31.5409,      2.32261
      31.9139,      1.89235
      32.2870,     0.956159
      32.6600,    -0.247784
      33.0330,     -1.45721
      33.4061,     -2.47546
      33.7791,     -3.15231
      34.1521,     -3.34529
      34.5252,     -2.96999
      34.8982,     -2.08343
      35.2712,    -0.879708
      35.6443,     0.374179
      36.0173,      1.36394
      36.3903,      1.79126
      36.7634,      1.58518
      37.1364,      1.05146
      37.5094,     0.652838
      37.8825,     0.590714
      38.2555,     0.684935
      38.6286,     0.650661
      39.0016,     0.379166
      39.3746,   -0.0749422
      39.7477,    -0.691073
      40.1207,     -1.57194
      40.4937,     -2.79299
      40.8668,     -4.19591
      41.2398,     -5.40067
      41.6128,     -6.01741
      41.9859,     -5.80303
      42.3589,     -4.68669
      42.7319,     -2.80795
      43.1050,    -0.584169
      43.4780,      1.37153
      43.8510,      2.54215
      44.2241,      2.78961
      44.5971,      2.37212
      44.9701,      1.70746
      45.3432,      1.12680
      45.7162,     0.795267
      46.0892,     0.749813
      46.4623,     0.939204
      46.8353,      1.25815
      47.2084,      1.60340
      47.5814,      1.91142
      47.9544,      2.14768
      48.3275,      2.30178
      48.7005,      2.42846
      49.0735,      2.67245
      49.4466,      3.19542
      49.8196,      4.02266
      50.1926,      4.94938
      50.5657,      5.64983
      50.9387,      5.92110
      51.3117,      5.79533
      51.6848,      5.42497
      52.0578,      4.96045
      52.4308,      4.57555
      52.8039,      4.49309
      53.1769,      4.86057
      53.5499,      5.59619
      53.9230,      6.42096
      54.2960,      7.06448
      54.6690,      7.40268
      55.0421,      7.40815
      55.4151,      7.09898
      55.7882,      6.62828
      56.1612,      6.30448
      56.5342,      6.34221
      56.9073,      6.60579
      57.2803,      6.73710
      57.6533,      6.54744
      58.0264,      6.18825
      58.3994,      5.96054
      58.7724,      6.07262
      59.1455,      6.55386
      59.5185,      7.24986
      59.8915,      7.86979
      60.2646,      8.14039
      60.6376,      7.95538
      61.0106,      7.36818
      61.3837,      6.51545
      61.7567,      5.61096
      62.1297,      4.92867
      62.5028,      4.68028
      62.8758,      4.89933
      63.2488,      5.44913
      63.6219,      6.12064
      63.9949,      6.75209
      64.3680,      7.30036
      64.7410,      7.77285
      65.1140,      8.07433
      65.4871,      8.00511
      65.8601,      7.48277
      66.2331,      6.70899
      66.6062,      6.03340
      66.9792,      5.66199
      67.3522,      5.53691
