# Freq.: 9.1830000e+09Hz; t_int: 166.49298h; (l,b) = (2.9613412, -0.053092860)
     -240.168,      0.00000
     -239.795,      0.00000
     -239.422,      0.00000
     -239.049,      0.00000
     -238.676,      0.00000
     -238.303,      0.00000
     -237.930,      0.00000
     -237.557,      0.00000
     -237.185,      0.00000
     -236.812,      0.00000
     -236.439,      0.00000
     -236.066,     0.449344
     -235.693,     -1.24455
     -235.320,     -3.21768
     -234.947,     -5.20079
     -234.574,     -6.76947
     -234.201,     -7.50422
     -233.828,     -7.26205
     -233.455,     -6.29900
     -233.082,     -5.13985
     -232.709,     -4.29346
     -232.336,     -3.98690
     -231.963,     -4.05714
     -231.590,     -4.07631
     -231.217,     -3.67399
     -230.844,     -2.81304
     -230.471,     -1.72318
     -230.098,    -0.569516
     -229.725,     0.679187
     -229.353,      1.98911
     -228.980,      3.03303
     -228.607,      3.40337
     -228.234,      3.01872
     -227.861,      2.21273
     -227.488,      1.45702
     -227.115,      1.06919
     -226.742,      1.11703
     -226.369,      1.46669
     -225.996,      1.89510
     -225.623,      2.21518
     -225.250,      2.31878
     -224.877,      2.11021
     -224.504,      1.48671
     -224.131,     0.481827
     -223.758,    -0.622939
     -223.385,     -1.46007
     -223.012,     -1.85461
     -222.639,     -1.87937
     -222.266,     -1.68832
     -221.894,     -1.39001
     -221.521,     -1.04919
     -221.148,    -0.692133
     -220.775,    -0.269093
     -220.402,     0.309308
     -220.029,      1.02111
     -219.656,      1.64280
     -219.283,      1.87489
     -218.910,      1.57718
     -218.537,     0.885672
     -218.164,     0.123451
     -217.791,    -0.402281
     -217.418,    -0.559571
     -217.045,    -0.406764
     -216.672,   -0.0864117
     -216.299,     0.294374
     -215.926,     0.715978
     -215.553,      1.22603
     -215.180,      1.87238
     -214.807,      2.61707
     -214.435,      3.29655
     -214.062,      3.69522
     -213.689,      3.68994
     -213.316,      3.33084
     -212.943,      2.77449
     -212.570,      2.12172
     -212.197,      1.33298
     -211.824,     0.347181
     -211.451,    -0.719662
     -211.078,     -1.55431
     -210.705,     -1.86340
     -210.332,     -1.60077
     -209.959,    -0.964525
     -209.586,    -0.206181
     -209.213,     0.495521
     -208.840,      1.00857
     -208.467,      1.24882
     -208.094,      1.28968
     -207.721,      1.38942
     -207.348,      1.80462
     -206.975,      2.55275
     -206.603,      3.36801
     -206.230,      3.88101
     -205.857,      3.84760
     -205.484,      3.29025
     -205.111,      2.54265
     -204.738,      2.14927
     -204.365,      2.53322
     -203.992,      3.58758
     -203.619,      4.61587
     -203.246,      4.82617
     -202.873,      3.96127
     -202.500,      2.41964
     -202.127,     0.790170
     -201.754,    -0.635220
     -201.381,     -1.89813
     -201.008,     -3.05494
     -200.635,     -3.92281
     -200.262,     -4.17049
     -199.889,     -3.64910
     -199.516,     -2.59037
     -199.144,     -1.44457
     -198.771,    -0.532891
     -198.398,     0.130364
     -198.025,     0.699954
     -197.652,      1.24183
     -197.279,      1.66435
     -196.906,      1.88458
     -196.533,      1.96495
     -196.160,      2.05072
     -195.787,      2.24999
     -195.414,      2.59468
     -195.041,      3.02459
     -194.668,      3.38840
     -194.295,      3.53838
     -193.922,      3.40621
     -193.549,      2.92984
     -193.176,      2.02582
     -192.803,     0.776669
     -192.430,    -0.440603
     -192.057,     -1.15861
     -191.685,     -1.14685
     -191.312,    -0.517894
     -190.939,     0.421802
     -190.566,      1.40357
     -190.193,      2.33787
     -189.820,      3.26085
     -189.447,      4.13462
     -189.074,      4.70904
     -188.701,      4.62246
     -188.328,      3.69381
     -187.955,      2.15564
     -187.582,     0.604605
     -187.209,    -0.338999
     -186.836,    -0.456767
     -186.463,    -0.120717
     -186.090,   -0.0269402
     -185.717,    -0.636746
     -185.344,     -1.78367
     -184.971,     -2.75792
     -184.598,     -2.79853
     -184.226,     -1.65613
     -183.853,     0.165894
     -183.480,      1.69534
     -183.107,      2.13672
     -182.734,      1.42461
     -182.361,     0.246469
     -181.988,    -0.527996
     -181.615,    -0.552569
     -181.242,    -0.215117
     -180.869,    -0.186956
     -180.496,    -0.808753
     -180.123,     -1.90140
     -179.750,     -3.03020
     -179.377,     -3.82294
     -179.004,     -4.12068
     -178.631,     -4.01606
     -178.258,     -3.77561
     -177.885,     -3.63291
     -177.512,     -3.64525
     -177.139,     -3.76323
     -176.766,     -3.95358
     -176.394,     -4.17892
     -176.021,     -4.29911
     -175.648,     -4.09006
     -175.275,     -3.43127
     -174.902,     -2.45747
     -174.529,     -1.43115
     -174.156,    -0.469332
     -173.783,     0.458009
     -173.410,      1.25402
     -173.037,      1.62865
     -172.664,      1.37845
     -172.291,     0.594243
     -171.918,    -0.415344
     -171.545,     -1.26489
     -171.172,     -1.59601
     -170.799,     -1.23652
     -170.426,    -0.320288
     -170.053,     0.802748
     -169.680,      1.76265
     -169.307,      2.26574
     -168.935,      2.11798
     -168.562,      1.30910
     -168.189,     0.122095
     -167.816,    -0.899080
     -167.443,     -1.20794
     -167.070,    -0.595378
     -166.697,     0.680841
     -166.324,      2.08496
     -165.951,      3.09442
     -165.578,      3.35638
     -165.205,      2.70997
     -164.832,      1.20503
     -164.459,    -0.839002
     -164.086,     -2.85388
     -163.713,     -4.24258
     -163.340,     -4.67393
     -162.967,     -4.18491
     -162.594,     -3.05171
     -162.221,     -1.63298
     -161.848,    -0.291698
     -161.476,     0.672115
     -161.103,      1.11997
     -160.730,      1.14762
     -160.357,      1.03504
     -159.984,      1.02962
     -159.611,      1.11870
     -159.238,      1.07033
     -158.865,     0.727257
     -158.492,     0.165606
     -158.119,    -0.465230
     -157.746,     -1.10067
     -157.373,     -1.65124
     -157.000,     -1.86906
     -156.627,     -1.51477
     -156.254,    -0.676222
     -155.881,     0.185159
     -155.508,     0.573790
     -155.135,     0.347809
     -154.762,    -0.222304
     -154.389,    -0.749702
     -154.016,     -1.07610
     -153.644,     -1.34766
     -153.271,     -1.77776
     -152.898,     -2.34243
     -152.525,     -2.70335
     -152.152,     -2.45229
     -151.779,     -1.49779
     -151.406,    -0.241090
     -151.033,     0.682254
     -150.660,     0.878524
     -150.287,     0.424827
     -149.914,    -0.310532
     -149.541,    -0.988348
     -149.168,     -1.46243
     -148.795,     -1.74927
     -148.422,     -1.91750
     -148.049,     -1.96818
     -147.676,     -1.75781
     -147.303,     -1.07788
     -146.930,    0.0931933
     -146.557,      1.42485
     -146.185,      2.41918
     -145.812,      2.79474
     -145.439,      2.65622
     -145.066,      2.31255
     -144.693,      1.99520
     -144.320,      1.74752
     -143.947,      1.51133
     -143.574,      1.25046
     -143.201,     0.972468
     -142.828,     0.693212
     -142.455,     0.467879
     -142.082,     0.442655
     -141.709,     0.774002
     -141.336,      1.44636
     -140.963,      2.18926
     -140.590,      2.60193
     -140.217,      2.41350
     -139.844,      1.69505
     -139.471,     0.823692
     -139.098,     0.198698
     -138.726,   -0.0165879
     -138.353,    0.0821347
     -137.980,     0.252427
     -137.607,     0.229430
     -137.234,   -0.0947416
     -136.861,    -0.523160
     -136.488,    -0.674426
     -136.115,    -0.303670
     -135.742,     0.528565
     -135.369,      1.52887
     -134.996,      2.27256
     -134.623,      2.30574
     -134.250,      1.39614
     -133.877,    -0.215324
     -133.504,     -1.91545
     -133.131,     -3.13362
     -132.758,     -3.64867
     -132.385,     -3.58547
     -132.012,     -3.24935
     -131.639,     -2.94237
     -131.267,     -2.84496
     -130.894,     -3.04674
     -130.521,     -3.60940
     -130.148,     -4.43163
     -129.775,     -5.02730
     -129.402,     -4.63503
     -129.029,     -2.77870
     -128.656,     0.184219
     -128.283,      3.13012
     -127.910,      4.90947
     -127.537,      5.11679
     -127.164,      4.20858
     -126.791,      2.97109
     -126.418,      1.91793
     -126.045,      1.10379
     -125.672,     0.366941
     -125.299,    -0.343335
     -124.926,    -0.912436
     -124.553,     -1.28109
     -124.180,     -1.56847
     -123.807,     -1.89239
     -123.435,     -2.17748
     -123.062,     -2.24432
     -122.689,     -2.01617
     -122.316,     -1.56781
     -121.943,     -1.03803
     -121.570,    -0.540451
     -121.197,   -0.0962481
     -120.824,     0.376280
     -120.451,     0.944152
     -120.078,      1.49608
     -119.705,      1.73330
     -119.332,      1.37196
     -118.959,     0.391912
     -118.586,    -0.882909
     -118.213,     -1.95201
     -117.840,     -2.42643
     -117.467,     -2.21902
     -117.094,     -1.54703
     -116.721,    -0.810788
     -116.348,    -0.408273
     -115.976,    -0.525906
     -115.603,     -1.03366
     -115.230,     -1.62857
     -114.857,     -2.13006
     -114.484,     -2.58221
     -114.111,     -3.02729
     -113.738,     -3.30665
     -113.365,     -3.22908
     -112.992,     -2.86115
     -112.619,     -2.48775
     -112.246,     -2.30874
     -111.873,     -2.30108
     -111.500,     -2.36589
     -111.127,     -2.50985
     -110.754,     -2.85005
     -110.381,     -3.44083
     -110.008,     -4.09331
     -109.635,     -4.39573
     -109.262,     -3.94313
     -108.889,     -2.58642
     -108.517,    -0.556166
     -108.144,      1.57705
     -107.771,      3.12108
     -107.398,      3.60064
     -107.025,      3.01068
     -106.652,      1.77568
     -106.279,     0.446817
     -105.906,    -0.597196
     -105.533,     -1.24923
     -105.160,     -1.61129
     -104.787,     -1.88371
     -104.414,     -2.24790
     -104.041,     -2.75581
     -103.668,     -3.25630
     -103.295,     -3.41079
     -102.922,     -2.88073
     -102.549,     -1.66353
     -102.176,    -0.285959
     -101.803,     0.458917
     -101.430,    0.0931869
     -101.058,     -1.18689
     -100.685,     -2.69270
     -100.312,     -3.71092
     -99.9387,     -3.83169
     -99.5657,     -3.06630
     -99.1927,     -1.87362
     -98.8198,    -0.978476
     -98.4468,    -0.893755
     -98.0739,     -1.53061
     -97.7009,     -2.32643
     -97.3280,     -2.74561
     -96.9550,     -2.67296
     -96.5821,     -2.41574
     -96.2091,     -2.33074
     -95.8362,     -2.37621
     -95.4632,     -2.05564
     -95.0903,    -0.899612
     -94.7173,     0.970868
     -94.3444,      2.78896
     -93.9714,      3.68127
     -93.5985,      3.33694
     -93.2255,      2.23514
     -92.8526,      1.23673
     -92.4796,     0.898248
     -92.1067,      1.10100
     -91.7337,      1.27200
     -91.3608,     0.935751
     -90.9878,    0.0885391
     -90.6149,    -0.876552
     -90.2419,     -1.51287
     -89.8690,     -1.57829
     -89.4960,     -1.10378
     -89.1231,    -0.378255
     -88.7501,     0.175597
     -88.3772,     0.314856
     -88.0042,     0.243821
     -87.6313,     0.461532
     -87.2583,      1.26548
     -86.8854,      2.43510
     -86.5124,      3.42631
     -86.1395,      3.85920
     -85.7665,      3.81348
     -85.3936,      3.67170
     -85.0206,      3.71007
     -84.6477,      3.86922
     -84.2747,      3.88858
     -83.9018,      3.57720
     -83.5288,      2.93435
     -83.1559,      2.10876
     -82.7829,      1.32664
     -82.4100,     0.789032
     -82.0370,     0.516168
     -81.6641,     0.316837
     -81.2911,    0.0148193
     -80.9182,    -0.346387
     -80.5452,    -0.637134
     -80.1723,    -0.850594
     -79.7993,    -0.966958
     -79.4264,    -0.753223
     -79.0534,   -0.0394699
     -78.6805,     0.833186
     -78.3075,      1.19140
     -77.9346,     0.762712
     -77.5616,  0.000868810
     -77.1887,    -0.437270
     -76.8157,    -0.377975
     -76.4428,    -0.189812
     -76.0698,    -0.312247
     -75.6969,    -0.881793
     -75.3239,     -1.73556
     -74.9510,     -2.60367
     -74.5780,     -3.26815
     -74.2050,     -3.60944
     -73.8321,     -3.56076
     -73.4592,     -3.08500
     -73.0862,     -2.25809
     -72.7132,     -1.35178
     -72.3403,    -0.749025
     -71.9673,    -0.712677
     -71.5944,     -1.19692
     -71.2214,     -1.86554
     -70.8485,     -2.33604
     -70.4755,     -2.47398
     -70.1026,     -2.45952
     -69.7296,     -2.55604
     -69.3567,     -2.85109
     -68.9837,     -3.22935
     -68.6108,     -3.51500
     -68.2378,     -3.58785
     -67.8649,     -3.42213
     -67.4919,     -3.07340
     -67.1190,     -2.58582
     -66.7460,     -1.87042
     -66.3731,    -0.771474
     -66.0001,     0.602992
     -65.6272,      1.66122
     -65.2542,      1.68226
     -64.8813,     0.546917
     -64.5083,    -0.988939
     -64.1354,     -1.90419
     -63.7624,     -1.79558
     -63.3895,     -1.13833
     -63.0165,    -0.770630
     -62.6436,     -1.18073
     -62.2706,     -2.17094
     -61.8977,     -3.03559
     -61.5247,     -3.07143
     -61.1518,     -2.11789
     -60.7788,    -0.752356
     -60.4059,    0.0986355
     -60.0329,    -0.119775
     -59.6600,     -1.17396
     -59.2870,     -2.28129
     -58.9141,     -2.69432
     -58.5411,     -2.06759
     -58.1682,    -0.427545
     -57.7952,      1.97240
     -57.4223,      4.66604
     -57.0493,      6.98747
     -56.6764,      8.27703
     -56.3034,      8.16363
     -55.9305,      6.69650
     -55.5575,      4.29502
     -55.1846,      1.57468
     -54.8116,    -0.902987
     -54.4387,     -2.79989
     -54.0657,     -3.95892
     -53.6928,     -4.31272
     -53.3198,     -3.95273
     -52.9469,     -3.20372
     -52.5739,     -2.44547
     -52.2010,     -1.83325
     -51.8280,     -1.29371
     -51.4551,    -0.787631
     -51.0821,    -0.445010
     -50.7092,    -0.416036
     -50.3362,    -0.715744
     -49.9633,     -1.26684
     -49.5903,     -1.98448
     -49.2174,     -2.73279
     -48.8444,     -3.26230
     -48.4715,     -3.30990
     -48.0985,     -2.80758
     -47.7256,     -1.96260
     -47.3526,     -1.10099
     -46.9796,    -0.424588
     -46.6067,     0.105433
     -46.2337,     0.671254
     -45.8608,      1.33522
     -45.4878,      1.81320
     -45.1149,      1.57344
     -44.7419,     0.278722
     -44.3690,     -1.84311
     -43.9960,     -4.07798
     -43.6231,     -5.64730
     -43.2501,     -6.11295
     -42.8772,     -5.54874
     -42.5042,     -4.41430
     -42.1313,     -3.20935
     -41.7583,     -2.22056
     -41.3854,     -1.59592
     -41.0124,     -1.49905
     -40.6395,     -1.97324
     -40.2665,     -2.66729
     -39.8936,     -2.89987
     -39.5206,     -2.13197
     -39.1477,    -0.397024
     -38.7747,      1.69576
     -38.4018,      3.32200
     -38.0288,      3.87547
     -37.6559,      3.24798
     -37.2829,      1.81949
     -36.9100,     0.177016
     -36.5370,     -1.18262
     -36.1641,     -1.94794
     -35.7911,     -1.97469
     -35.4182,     -1.30552
     -35.0452,    -0.167641
     -34.6723,      1.13129
     -34.2993,      2.32080
     -33.9264,      3.22174
     -33.5534,      3.77680
     -33.1805,      4.04925
     -32.8075,      4.12783
     -32.4346,      4.01613
     -32.0616,      3.66330
     -31.6887,      3.10033
     -31.3157,      2.47553
     -30.9428,      1.92268
     -30.5698,      1.44917
     -30.1969,      1.00316
     -29.8239,     0.593641
     -29.4510,     0.268082
     -29.0780,    0.0446284
     -28.7051,   0.00491852
     -28.3321,     0.408171
     -27.9592,      1.51395
     -27.5862,      3.21606
     -27.2133,      4.95113
     -26.8403,      6.06628
     -26.4674,      6.31322
     -26.0944,      6.01296
     -25.7215,      5.76421
     -25.3485,      5.99056
     -24.9756,      6.72750
     -24.6026,      7.73719
     -24.2297,      8.69812
     -23.8567,      9.27744
     -23.4838,      9.19038
     -23.1108,      8.36876
     -22.7379,      7.08108
     -22.3649,      5.79352
     -21.9920,      4.85729
     -21.6190,      4.30358
     -21.2461,      3.90361
     -20.8731,      3.43246
     -20.5002,      2.92613
     -20.1272,      2.66918
     -19.7542,      2.86392
     -19.3813,      3.34594
     -19.0083,      3.73544
     -18.6354,      3.85777
     -18.2624,      3.91189
     -17.8895,      4.23255
     -17.5165,      4.98061
     -17.1436,      6.04647
     -16.7706,      7.11352
     -16.3977,      7.76534
     -16.0247,      7.67721
     -15.6518,      6.87012
     -15.2788,      5.78897
     -14.9059,      5.06352
     -14.5329,      5.14191
     -14.1600,      6.04852
     -13.7870,      7.34957
     -13.4141,      8.38222
     -13.0411,      8.73461
     -12.6682,      8.62136
     -12.2952,      8.70464
     -11.9223,      9.46356
     -11.5493,      10.7523
     -11.1764,      11.9576
     -10.8034,      12.5190
     -10.4305,      12.3233
     -10.0575,      11.7286
     -9.68458,      11.2678
     -9.31163,      11.2552
     -8.93868,      11.5986
     -8.56573,      11.9519
     -8.19278,      12.0337
     -7.81983,      11.8435
     -7.44688,      11.6383
     -7.07393,      11.6980
     -6.70098,      12.0795
     -6.32802,      12.6082
     -5.95507,      13.1032
     -5.58212,      13.5634
     -5.20917,      14.1213
     -4.83622,      14.8672
     -4.46327,      15.7563
     -4.09032,      16.6570
     -3.71737,      17.4308
     -3.34442,      17.9802
     -2.97147,      18.2969
     -2.59852,      18.4943
     -2.22557,      18.7438
     -1.85262,      19.1451
     -1.47967,      19.6584
     -1.10672,      20.1692
    -0.733764,      20.6453
    -0.360814,      21.2366
    0.0121370,      22.1351
     0.385088,      23.2762
     0.758038,      24.2820
      1.13099,      24.8167
      1.50394,      24.9396
      1.87689,      24.9831
      2.24984,      25.1040
      2.62279,      25.0931
      2.99574,      24.6927
      3.36869,      24.0294
      3.74164,      23.6320
      4.11459,      23.9948
      4.48755,      25.1187
      4.86050,      26.4655
      5.23345,      27.3796
      5.60640,      27.6068
      5.97935,      27.4183
      6.35230,      27.2538
      6.72525,      27.3156
      7.09820,      27.5351
      7.47115,      27.8169
      7.84410,      28.1844
      8.21705,      28.7087
      8.59000,      29.4242
      8.96295,      30.3586
      9.33590,      31.5554
      9.70885,      32.9882
      10.0818,      34.4820
      10.4548,      35.7792
      10.8277,      36.6894
      11.2007,      37.2222
      11.5736,      37.6871
      11.9466,      38.6472
      12.3195,      40.5625
      12.6925,      43.3162
      13.0654,      46.1189
      13.4384,      47.9674
      13.8113,      48.2748
      14.1843,      47.1798
      14.5572,      45.4134
      14.9302,      43.9228
      15.3031,      43.4601
      15.6761,      44.2696
      16.0490,      46.0243
      16.4220,      48.0558
      16.7949,      49.7107
      17.1679,      50.6455
      17.5408,      50.9606
      17.9138,      51.0519
      18.2867,      51.2113
      18.6597,      51.3476
      19.0326,      51.1491
      19.4056,      50.4496
      19.7785,      49.3240
      20.1515,      47.9173
      20.5244,      46.3942
      20.8974,      45.0206
      21.2703,      44.0252
      21.6433,      43.2753
      22.0162,      42.2474
      22.3892,      40.4552
      22.7621,      37.9027
      23.1351,      35.1066
      23.5080,      32.7057
      23.8810,      31.0520
      24.2539,      30.1287
      24.6269,      29.7301
