# Freq.: 9.1830000e+09Hz; t_int: 142.75829h; (l,b) = (9.8302734, -0.98992065)
     -239.919,      0.00000
     -239.546,      0.00000
     -239.173,      0.00000
     -238.800,      0.00000
     -238.427,      0.00000
     -238.054,      0.00000
     -237.681,      0.00000
     -237.308,      0.00000
     -236.935,      0.00000
     -236.562,      0.00000
     -236.189,      0.00000
     -235.816,    -0.418518
     -235.443,    -0.944665
     -235.070,     -1.27643
     -234.697,     -1.18730
     -234.324,    -0.596654
     -233.951,     0.426852
     -233.578,      1.60811
     -233.206,      2.51299
     -232.833,      2.77923
     -232.460,      2.33048
     -232.087,      1.34770
     -231.714,    0.0528435
     -231.341,     -1.41820
     -230.968,     -2.91681
     -230.595,     -4.14808
     -230.222,     -4.74135
     -229.849,     -4.49828
     -229.476,     -3.60158
     -229.103,     -2.58416
     -228.730,     -2.00849
     -228.357,     -2.07118
     -227.984,     -2.50339
     -227.611,     -2.88343
     -227.238,     -3.02498
     -226.865,     -3.01288
     -226.492,     -2.90036
     -226.119,     -2.52400
     -225.746,     -1.73119
     -225.373,    -0.736469
     -225.000,    -0.110027
     -224.627,    -0.333207
     -224.254,     -1.37137
     -223.881,     -2.69511
     -223.508,     -3.67590
     -223.135,     -3.92908
     -222.762,     -3.37725
     -222.389,     -2.16668
     -222.016,    -0.580739
     -221.643,      1.06480
     -221.270,      2.53122
     -220.897,      3.69003
     -220.524,      4.49711
     -220.151,      4.97846
     -219.778,      5.19003
     -219.405,      5.10889
     -219.032,      4.58506
     -218.659,      3.50005
     -218.286,      2.01937
     -217.913,     0.644246
     -217.540,   -0.0630765
     -217.167,     0.125922
     -216.794,     0.928642
     -216.421,      1.73810
     -216.048,      2.00334
     -215.675,      1.49808
     -215.302,     0.342321
     -214.930,     -1.10759
     -214.557,     -2.37957
     -214.184,     -3.05369
     -213.811,     -2.97793
     -213.438,     -2.36089
     -213.065,     -1.61740
     -212.692,     -1.08978
     -212.319,    -0.891877
     -211.946,    -0.992284
     -211.573,     -1.38299
     -211.200,     -2.06873
     -210.827,     -2.86852
     -210.454,     -3.34405
     -210.081,     -3.06145
     -209.708,     -1.95643
     -209.335,    -0.436834
     -208.962,     0.819876
     -208.589,      1.20042
     -208.216,     0.517778
     -207.843,    -0.797673
     -207.470,     -1.98614
     -207.097,     -2.56593
     -206.724,     -2.59065
     -206.351,     -2.31608
     -205.978,     -1.82689
     -205.605,     -1.08089
     -205.232,    -0.153758
     -204.859,     0.701541
     -204.486,      1.20696
     -204.113,      1.22858
     -203.740,     0.835426
     -203.367,     0.237780
     -202.994,    -0.322587
     -202.621,    -0.641452
     -202.248,    -0.591438
     -201.875,    -0.186634
     -201.502,     0.399052
     -201.129,     0.963275
     -200.756,      1.44252
     -200.383,      1.88781
     -200.010,      2.28025
     -199.637,      2.46698
     -199.264,      2.31984
     -198.891,      1.89854
     -198.518,      1.42835
     -198.145,      1.18289
     -197.772,      1.42735
     -197.399,      2.34921
     -197.026,      3.83951
     -196.654,      5.30675
     -196.281,      5.90080
     -195.908,      5.14076
     -195.535,      3.40224
     -195.162,      1.74308
     -194.789,      1.15854
     -194.416,      1.91118
     -194.043,      3.49984
     -193.670,      5.18617
     -193.297,      6.47028
     -192.924,      7.11885
     -192.551,      6.99688
     -192.178,      6.07807
     -191.805,      4.53267
     -191.432,      2.65327
     -191.059,     0.737963
     -190.686,    -0.902360
     -190.313,     -1.97412
     -189.940,     -2.40566
     -189.567,     -2.46242
     -189.194,     -2.48238
     -188.821,     -2.47784
     -188.448,     -2.14590
     -188.075,     -1.31922
     -187.702,    -0.261477
     -187.329,     0.593970
     -186.956,      1.11515
     -186.583,      1.53521
     -186.210,      2.04782
     -185.837,      2.48367
     -185.464,      2.45879
     -185.091,      1.74354
     -184.718,     0.431417
     -184.345,     -1.10151
     -183.972,     -2.28086
     -183.599,     -2.52971
     -183.226,     -1.59859
     -182.853,     0.251892
     -182.480,      2.37464
     -182.107,      3.97910
     -181.734,      4.37599
     -181.361,      3.28932
     -180.988,      1.09247
     -180.615,     -1.36296
     -180.242,     -3.28080
     -179.869,     -4.29925
     -179.496,     -4.44476
     -179.123,     -3.95929
     -178.750,     -3.19713
     -178.378,     -2.39721
     -178.005,     -1.44295
     -177.632,    -0.106576
     -177.259,      1.35168
     -176.886,      2.10376
     -176.513,      1.47858
     -176.140,    -0.357175
     -175.767,     -2.53545
     -175.394,     -4.16441
     -175.021,     -4.82182
     -174.648,     -4.59394
     -174.275,     -3.83626
     -173.902,     -2.89726
     -173.529,     -1.97065
     -173.156,     -1.11156
     -172.783,    -0.312425
     -172.410,     0.484341
     -172.037,      1.42652
     -171.664,      2.68446
     -171.291,      4.22108
     -170.918,      5.66572
     -170.545,      6.52748
     -170.172,      6.53809
     -169.799,      5.78955
     -169.426,      4.63270
     -169.053,      3.45140
     -168.680,      2.43072
     -168.307,      1.49848
     -167.934,     0.506665
     -167.561,    -0.517325
     -167.188,     -1.26836
     -166.815,     -1.33290
     -166.442,    -0.561463
     -166.069,     0.715032
     -165.696,      1.93150
     -165.323,      2.72783
     -164.950,      3.05735
     -164.577,      2.97690
     -164.204,      2.54059
     -163.831,      1.87519
     -163.458,      1.16820
     -163.085,     0.545017
     -162.712,    0.0654301
     -162.339,    -0.170588
     -161.966,   -0.0481599
     -161.593,     0.408234
     -161.220,      1.00322
     -160.847,      1.50586
     -160.474,      1.75501
     -160.102,      1.67496
     -159.729,      1.29226
     -159.356,     0.746990
     -158.983,     0.222978
     -158.610,    -0.195348
     -158.237,    -0.633385
     -157.864,     -1.36532
     -157.491,     -2.55629
     -157.118,     -4.00993
     -156.745,     -5.19037
     -156.372,     -5.54772
     -155.999,     -4.87034
     -155.626,     -3.37685
     -155.253,     -1.53563
     -154.880,     0.209793
     -154.507,      1.64929
     -154.134,      2.83581
     -153.761,      3.90683
     -153.388,      4.84030
     -153.015,      5.36233
     -152.642,      5.10111
     -152.269,      3.89708
     -151.896,      2.01922
     -151.523,    0.0286896
     -151.150,     -1.63862
     -150.777,     -2.92239
     -150.404,     -3.93645
     -150.031,     -4.61451
     -149.658,     -4.68487
     -149.285,     -3.97277
     -148.912,     -2.62299
     -148.539,     -1.05368
     -148.166,     0.188998
     -147.793,     0.587910
     -147.420,   -0.0790003
     -147.047,     -1.49359
     -146.674,     -2.93460
     -146.301,     -3.80688
     -145.928,     -4.05011
     -145.555,     -4.00681
     -145.182,     -3.94445
     -144.809,     -3.76509
     -144.436,     -3.15462
     -144.063,     -1.97210
     -143.690,    -0.497711
     -143.317,     0.722794
     -142.944,      1.32872
     -142.571,      1.43027
     -142.198,      1.42181
     -141.825,      1.55800
     -141.453,      1.75353
     -141.080,      1.73808
     -140.707,      1.31577
     -140.334,     0.473613
     -139.961,    -0.671590
     -139.588,     -1.94634
     -139.215,     -3.14291
     -138.842,     -4.04844
     -138.469,     -4.52489
     -138.096,     -4.57569
     -137.723,     -4.30263
     -137.350,     -3.78032
     -136.977,     -3.01013
     -136.604,     -2.02404
     -136.231,    -0.984824
     -135.858,    -0.103607
     -135.485,     0.579167
     -135.112,      1.28221
     -134.739,      2.24966
     -134.366,      3.39673
     -133.993,      4.27834
     -133.620,      4.47741
     -133.247,      3.98228
     -132.874,      3.16600
     -132.501,      2.47424
     -132.128,      2.14183
     -131.755,      2.08285
     -131.382,      1.97461
     -131.009,      1.52168
     -130.636,     0.747209
     -130.263,    0.0606952
     -129.890,   -0.0126254
     -129.517,     0.720634
     -129.144,      1.88551
     -128.771,      2.81122
     -128.398,      3.10304
     -128.025,      2.93233
     -127.652,      2.77934
     -127.279,      2.95284
     -126.906,      3.36169
     -126.533,      3.68885
     -126.160,      3.71723
     -125.787,      3.46103
     -125.414,      3.05682
     -125.041,      2.64404
     -124.668,      2.34120
     -124.295,      2.21279
     -123.922,      2.19612
     -123.549,      2.10642
     -123.177,      1.77240
     -122.804,      1.19486
     -122.431,     0.584290
     -122.058,     0.233801
     -121.685,     0.316351
     -121.312,     0.751205
     -120.939,      1.22574
     -120.566,      1.35443
     -120.193,     0.899902
     -119.820,   -0.0466084
     -119.447,     -1.07065
     -119.074,     -1.69166
     -118.701,     -1.68182
     -118.328,     -1.16029
     -117.955,    -0.428399
     -117.582,     0.270917
     -117.209,     0.916095
     -116.836,      1.67414
     -116.463,      2.63606
     -116.090,      3.57195
     -115.717,      4.02280
     -115.344,      3.64416
     -114.971,      2.45117
     -114.598,     0.811019
     -114.225,    -0.759735
     -113.852,     -1.89150
     -113.479,     -2.55936
     -113.106,     -3.00603
     -112.733,     -3.48391
     -112.360,     -4.06944
     -111.987,     -4.65745
     -111.614,     -5.07724
     -111.241,     -5.22240
     -110.868,     -5.07182
     -110.495,     -4.58649
     -110.122,     -3.65912
     -109.749,     -2.22500
     -109.376,    -0.352022
     -109.003,      1.84020
     -108.630,      4.24068
     -108.257,      6.60765
     -107.884,      8.45909
     -107.511,      9.28627
     -107.138,      8.92693
     -106.765,      7.67730
     -106.392,      6.05713
     -106.019,      4.52683
     -105.646,      3.36707
     -105.273,      2.65576
     -104.900,      2.25199
     -104.528,      1.83138
     -104.155,      1.06796
     -103.782,   -0.0623895
     -103.409,     -1.12575
     -103.036,     -1.50418
     -102.663,    -0.916845
     -102.290,     0.366242
     -101.917,      1.79256
     -101.544,      2.85246
     -101.171,      3.14922
     -100.798,      2.44833
     -100.425,     0.915591
     -100.052,    -0.779938
     -99.6788,     -1.83195
     -99.3058,     -1.83778
     -98.9328,    -0.982536
     -98.5598,     0.195636
     -98.1869,      1.14598
     -97.8139,      1.54786
     -97.4409,      1.43608
     -97.0679,      1.16421
     -96.6949,      1.12114
     -96.3220,      1.33432
     -95.9490,      1.37364
     -95.5760,     0.748636
     -95.2030,    -0.614945
     -94.8300,     -2.32481
     -94.4571,     -3.83689
     -94.0841,     -4.75199
     -93.7111,     -4.94178
     -93.3381,     -4.54202
     -92.9651,     -3.82461
     -92.5922,     -3.02889
     -92.2192,     -2.31394
     -91.8462,     -1.82725
     -91.4732,     -1.68528
     -91.1003,     -1.80555
     -90.7273,     -1.84243
     -90.3543,     -1.42075
     -89.9813,    -0.446498
     -89.6083,     0.842565
     -89.2354,      2.06611
     -88.8624,      2.89677
     -88.4894,      3.18951
     -88.1164,      3.05403
     -87.7434,      2.78564
     -87.3705,      2.64511
     -86.9975,      2.67269
     -86.6245,      2.70449
     -86.2515,      2.54487
     -85.8785,      2.11821
     -85.5056,      1.49985
     -85.1326,     0.864629
     -84.7596,     0.416819
     -84.3866,     0.312117
     -84.0136,     0.585155
     -83.6407,      1.13057
     -83.2677,      1.75905
     -82.8947,      2.28715
     -82.5217,      2.60012
     -82.1487,      2.65911
     -81.7758,      2.45803
     -81.4028,      1.97200
     -81.0298,      1.16008
     -80.6568,    0.0256352
     -80.2838,     -1.32260
     -79.9109,     -2.63787
     -79.5379,     -3.57806
     -79.1649,     -3.90415
     -78.7919,     -3.70755
     -78.4189,     -3.33947
     -78.0460,     -3.03626
     -77.6730,     -2.71201
     -77.3000,     -2.18636
     -76.9270,     -1.48672
     -76.5540,    -0.814271
     -76.1811,    -0.306835
     -75.8081,    0.0435613
     -75.4351,     0.272142
     -75.0621,     0.302355
     -74.6891,   -0.0693388
     -74.3162,    -0.982672
     -73.9432,     -2.23072
     -73.5702,     -3.24477
     -73.1972,     -3.47898
     -72.8242,     -2.80968
     -72.4513,     -1.56026
     -72.0783,    -0.239795
     -71.7053,     0.708056
     -71.3323,      1.03662
     -70.9594,     0.746998
     -70.5864,    0.0920428
     -70.2134,    -0.481989
     -69.8404,    -0.529492
     -69.4674,    0.0888387
     -69.0945,      1.06363
     -68.7215,      1.88090
     -68.3485,      2.22131
     -67.9755,      2.09690
     -67.6025,      1.69822
     -67.2296,      1.24775
     -66.8566,     0.970037
     -66.4836,      1.03512
     -66.1106,      1.41792
     -65.7376,      1.83094
     -65.3647,      1.88814
     -64.9917,      1.40777
     -64.6187,     0.553257
     -64.2457,    -0.336698
     -63.8727,     -1.01183
     -63.4998,     -1.37997
     -63.1268,     -1.41199
     -62.7538,     -1.12167
     -62.3808,    -0.669243
     -62.0078,    -0.393482
     -61.6349,    -0.630983
     -61.2619,     -1.42043
     -60.8889,     -2.38276
     -60.5159,     -3.00260
     -60.1429,     -3.09425
     -59.7700,     -2.91392
     -59.3970,     -2.80243
     -59.0240,     -2.86709
     -58.6510,     -3.03590
     -58.2780,     -3.21952
     -57.9051,     -3.32533
     -57.5321,     -3.24947
     -57.1591,     -2.94551
     -56.7861,     -2.44296
     -56.4131,     -1.76783
     -56.0402,    -0.890600
     -55.6672,     0.206190
     -55.2942,      1.37654
     -54.9212,      2.24669
     -54.5482,      2.43224
     -54.1753,      1.91564
     -53.8023,      1.11934
     -53.4293,     0.485308
     -53.0563,    0.0378656
     -52.6833,    -0.541161
     -52.3104,     -1.49070
     -51.9374,     -2.74802
     -51.5644,     -4.05282
     -51.1914,     -5.10297
     -50.8184,     -5.63936
     -50.4455,     -5.53853
     -50.0725,     -4.89429
     -49.6995,     -3.98601
     -49.3265,     -3.13158
     -48.9535,     -2.52813
     -48.5806,     -2.19223
     -48.2076,     -2.03104
     -47.8346,     -1.96273
     -47.4616,     -1.96027
     -47.0886,     -1.98179
     -46.7157,     -1.91143
     -46.3427,     -1.64826
     -45.9697,     -1.24550
     -45.5967,    -0.852273
     -45.2237,    -0.483863
     -44.8508,    0.0196118
     -44.4778,     0.698439
     -44.1048,      1.23173
     -43.7318,      1.16819
     -43.3588,     0.415156
     -42.9859,    -0.652507
     -42.6129,     -1.63422
     -42.2399,     -2.50000
     -41.8669,     -3.41743
     -41.4939,     -4.32031
     -41.1210,     -4.82797
     -40.7480,     -4.52587
     -40.3750,     -3.23592
     -40.0020,     -1.16496
     -39.6291,      1.07518
     -39.2561,      2.72623
     -38.8831,      3.32026
     -38.5101,      2.87362
     -38.1371,      1.71458
     -37.7642,     0.246706
     -37.3912,     -1.16312
     -37.0182,     -2.24914
     -36.6452,     -2.90769
     -36.2722,     -3.20088
     -35.8993,     -3.28376
     -35.5263,     -3.28603
     -35.1533,     -3.21961
     -34.7803,     -3.00155
     -34.4073,     -2.57378
     -34.0344,     -1.98457
     -33.6614,     -1.36830
     -33.2884,    -0.886705
     -32.9154,    -0.674758
     -32.5424,    -0.774267
     -32.1695,     -1.08012
     -31.7965,     -1.38005
     -31.4235,     -1.48965
     -31.0505,     -1.34484
     -30.6775,    -0.969038
     -30.3046,    -0.425472
     -29.9316,     0.153480
     -29.5586,     0.543534
     -29.1856,     0.495724
     -28.8126,    -0.109980
     -28.4397,     -1.06434
     -28.0667,     -1.77814
     -27.6937,     -1.64243
     -27.3207,    -0.618010
     -26.9477,     0.607511
     -26.5748,      1.22587
     -26.2018,      1.11227
     -25.8288,     0.937024
     -25.4558,      1.40920
     -25.0828,      2.44825
     -24.7099,      3.20230
     -24.3369,      2.91623
     -23.9639,      1.68569
     -23.5909,     0.286788
     -23.2179,    -0.588830
     -22.8450,    -0.740409
     -22.4720,    -0.239259
     -22.0990,     0.848390
     -21.7260,      2.39130
     -21.3530,      3.98357
     -20.9801,      4.98506
     -20.6071,      4.91431
     -20.2341,      3.85720
     -19.8611,      2.41243
     -19.4881,      1.17513
     -19.1152,     0.330626
     -18.7422,    -0.249111
     -18.3692,    -0.697372
     -17.9962,     -1.07843
     -17.6233,     -1.47414
     -17.2503,     -1.90395
     -16.8773,     -2.15569
     -16.5043,     -1.88643
     -16.1313,    -0.968666
     -15.7584,     0.345109
     -15.3854,      1.62545
     -15.0124,      2.54054
     -14.6394,      2.90095
     -14.2664,      2.57462
     -13.8935,      1.54081
     -13.5205,    0.0466815
     -13.1475,     -1.44322
     -12.7745,     -2.55801
     -12.4015,     -3.22473
     -12.0286,     -3.51928
     -11.6556,     -3.42162
     -11.2826,     -2.84727
     -10.9096,     -1.90396
     -10.5366,    -0.989587
     -10.1637,    -0.548799
     -9.79068,    -0.748349
     -9.41770,     -1.42413
     -9.04472,     -2.30684
     -8.67174,     -3.23492
     -8.29876,     -4.14252
     -7.92578,     -4.87729
     -7.55280,     -5.08194
     -7.17982,     -4.35239
     -6.80684,     -2.61662
     -6.43386,    -0.368218
     -6.06088,      1.52871
     -5.68790,      2.32214
     -5.31492,      1.78669
     -4.94194,     0.331539
     -4.56896,     -1.26184
     -4.19598,     -2.31658
     -3.82300,     -2.59527
     -3.45002,     -2.26400
     -3.07704,     -1.63842
     -2.70406,    -0.985355
     -2.33108,    -0.446076
     -1.95810,   -0.0326784
     -1.58512,     0.298309
     -1.21214,     0.526794
    -0.839164,     0.516526
    -0.466185,    0.0980645
   -0.0932048,    -0.760034
     0.279775,     -1.84347
     0.652755,     -2.79603
      1.02573,     -3.38520
      1.39871,     -3.68071
      1.77169,     -3.96099
      2.14467,     -4.42709
      2.51765,     -4.97376
      2.89063,     -5.19700
      3.26361,     -4.65365
      3.63659,     -3.24772
      4.00957,     -1.45782
      4.38255,    -0.107900
      4.75553,     0.252566
      5.12851,    -0.170428
      5.50149,    -0.591951
      5.87447,    -0.394141
      6.24745,     0.286381
      6.62043,     0.768388
      6.99341,     0.599179
      7.36639,   0.00463535
      7.73937,    -0.446367
      8.11235,    -0.500463
      8.48533,    -0.484358
      8.85831,    -0.989133
      9.23129,     -2.33739
      9.60427,     -4.32162
      9.97725,     -6.42774
      10.3502,     -8.27689
      10.7232,     -9.78262
      11.0962,     -10.8980
      11.4692,     -11.3976
      11.8421,     -11.0617
      12.2151,     -9.98486
      12.5881,     -8.56507
      12.9611,     -7.22730
      13.3341,     -6.19831
      13.7070,     -5.43390
      14.0800,     -4.69576
      14.4530,     -3.78780
      14.8260,     -2.78875
      15.1990,     -2.04961
      15.5719,     -1.95711
      15.9449,     -2.64952
      16.3179,     -3.85896
      16.6909,     -4.97845
      17.0639,     -5.31966
      17.4368,     -4.40505
      17.8098,     -2.17048
      18.1828,     0.954886
      18.5558,      4.13416
      18.9288,      6.44671
      19.3017,      7.38810
      19.6747,      7.21274
      20.0477,      6.75466
      20.4207,      6.79736
      20.7937,      7.52244
      21.1666,      8.47246
      21.5396,      8.95583
      21.9126,      8.51413
      22.2856,      7.15591
      22.6586,      5.26831
      23.0315,      3.30443
      23.4045,      1.51155
      23.7775,   -0.0450502
      24.1505,     -1.22590
      24.5235,     -1.72743
      24.8964,     -1.39213
