# Freq.: 9.1830000e+09Hz; t_int: 119.12259h; (l,b) = (32.876049, -0.42305621)
     -197.468,      0.00000
     -197.095,      0.00000
     -196.722,      0.00000
     -196.349,      0.00000
     -195.976,      0.00000
     -195.603,      0.00000
     -195.230,      0.00000
     -194.857,      0.00000
     -194.484,      0.00000
     -194.111,      0.00000
     -193.738,      0.00000
     -193.365,     0.640450
     -192.992,      1.78550
     -192.619,      3.45760
     -192.246,      5.18610
     -191.873,      6.50616
     -191.500,      7.01721
     -191.127,      6.45156
     -190.754,      4.83178
     -190.381,      2.54150
     -190.008,     0.173873
     -189.635,     -1.74769
     -189.262,     -2.97187
     -188.889,     -3.52554
     -188.516,     -3.58494
     -188.143,     -3.34380
     -187.770,     -2.91948
     -187.397,     -2.30719
     -187.024,     -1.45052
     -186.651,    -0.390914
     -186.278,     0.717192
     -185.905,      1.76607
     -185.532,      2.74657
     -185.159,      3.57976
     -184.786,      4.05288
     -184.413,      4.05034
     -184.040,      3.74443
     -183.667,      3.40696
     -183.293,      3.04080
     -182.920,      2.30465
     -182.547,     0.876557
     -182.174,     -1.10333
     -181.801,     -2.98166
     -181.428,     -4.01877
     -181.055,     -3.92255
     -180.682,     -3.02389
     -180.309,     -1.95719
     -179.936,     -1.17186
     -179.563,    -0.731511
     -179.190,    -0.490107
     -178.817,    -0.345971
     -178.444,    -0.324471
     -178.071,    -0.494780
     -177.698,    -0.822246
     -177.325,     -1.08255
     -176.952,    -0.986774
     -176.579,    -0.472284
     -176.206,     0.183627
     -175.833,     0.634451
     -175.460,     0.805390
     -175.087,     0.889094
     -174.714,      1.08562
     -174.341,      1.45441
     -173.968,      1.93561
     -173.595,      2.36906
     -173.222,      2.54135
     -172.849,      2.38090
     -172.476,      2.13300
     -172.103,      2.21983
     -171.730,      2.84587
     -171.357,      3.76463
     -170.984,      4.46935
     -170.611,      4.61071
     -170.238,      4.22763
     -169.865,      3.60079
     -169.492,      2.93678
     -169.119,      2.23714
     -168.746,      1.42078
     -168.373,     0.445405
     -168.000,    -0.687542
     -167.627,     -1.85773
     -167.254,     -2.67895
     -166.881,     -2.63759
     -166.508,     -1.57867
     -166.135,    0.0233228
     -165.762,      1.42576
     -165.388,      2.20809
     -165.015,      2.44193
     -164.642,      2.42934
     -164.269,      2.45345
     -163.896,      2.70422
     -163.523,      3.21797
     -163.150,      3.81792
     -162.777,      4.23780
     -162.404,      4.40486
     -162.031,      4.52989
     -161.658,      4.80124
     -161.285,      5.04440
     -160.912,      4.84732
     -160.539,      4.05376
     -160.166,      3.02163
     -159.793,      2.32526
     -159.420,      2.22926
     -159.047,      2.47916
     -158.674,      2.58102
     -158.301,      2.24875
     -157.928,      1.59372
     -157.555,     0.946506
     -157.182,     0.533747
     -156.809,     0.305100
     -156.436,    0.0321443
     -156.063,    -0.483306
     -155.690,     -1.31446
     -155.317,     -2.37287
     -154.944,     -3.30483
     -154.571,     -3.53873
     -154.198,     -2.69920
     -153.825,     -1.03667
     -153.452,     0.671226
     -153.079,      1.71873
     -152.706,      1.99247
     -152.333,      1.92097
     -151.960,      1.92794
     -151.587,      1.96636
     -151.214,      1.61851
     -150.841,     0.613713
     -150.468,    -0.833966
     -150.095,     -2.22172
     -149.722,     -3.22761
     -149.349,     -3.92316
     -148.976,     -4.53841
     -148.603,     -5.09338
     -148.230,     -5.30269
     -147.857,     -4.81952
     -147.483,     -3.55164
     -147.110,     -1.77702
     -146.737,   -0.0201682
     -146.364,      1.19494
     -145.991,      1.59356
     -145.618,      1.26389
     -145.245,     0.543778
     -144.872,    -0.207464
     -144.499,    -0.744395
     -144.126,    -0.953601
     -143.753,    -0.876243
     -143.380,    -0.722539
     -143.007,    -0.756865
     -142.634,     -1.12381
     -142.261,     -1.81464
     -141.888,     -2.71504
     -141.515,     -3.51829
     -141.142,     -3.65804
     -140.769,     -2.65116
     -140.396,    -0.705025
     -140.023,      1.14266
     -139.650,      1.72804
     -139.277,     0.728136
     -138.904,     -1.07223
     -138.531,     -2.47774
     -138.158,     -2.80813
     -137.785,     -2.17418
     -137.412,     -1.03656
     -137.039,     0.307275
     -136.666,      1.80222
     -136.293,      3.37966
     -135.920,      4.76362
     -135.547,      5.55415
     -135.174,      5.49719
     -134.801,      4.68533
     -134.428,      3.48006
     -134.055,      2.21262
     -133.682,     0.973512
     -133.309,    -0.316021
     -132.936,     -1.69278
     -132.563,     -3.01569
     -132.190,     -3.97409
     -131.817,     -4.27167
     -131.444,     -3.92444
     -131.071,     -3.35052
     -130.698,     -3.01482
     -130.325,     -2.96944
     -129.952,     -2.88194
     -129.578,     -2.53559
     -129.205,     -2.13265
     -128.832,     -2.03621
     -128.459,     -2.36858
     -128.086,     -2.94608
     -127.713,     -3.45311
     -127.340,     -3.57938
     -126.967,     -3.14627
     -126.594,     -2.28247
     -126.221,     -1.44148
     -125.848,     -1.10522
     -125.475,     -1.42383
     -125.102,     -2.15679
     -124.729,     -2.89549
     -124.356,     -3.26217
     -123.983,     -2.99358
     -123.610,     -2.05433
     -123.237,    -0.754324
     -122.864,     0.346064
     -122.491,     0.762325
     -122.118,     0.380677
     -121.745,    -0.501733
     -121.372,     -1.38455
     -120.999,     -1.87757
     -120.626,     -1.92687
     -120.253,     -1.77179
     -119.880,     -1.65418
     -119.507,     -1.57514
     -119.134,     -1.34859
     -118.761,    -0.857222
     -118.388,    -0.250491
     -118.015,    0.0678114
     -117.642,    -0.298571
     -117.269,     -1.35731
     -116.896,     -2.59879
     -116.523,     -3.35681
     -116.150,     -3.32920
     -115.777,     -2.70513
     -115.404,     -1.85723
     -115.031,     -1.04381
     -114.658,    -0.367268
     -114.285,     0.165388
     -113.912,     0.602751
     -113.539,     0.969195
     -113.166,      1.17993
     -112.793,      1.09190
     -112.420,     0.657893
     -112.047,  -0.00166420
     -111.673,    -0.680831
     -111.300,     -1.22486
     -110.927,     -1.58301
     -110.554,     -1.73650
     -110.181,     -1.62609
     -109.808,     -1.23301
     -109.435,    -0.739561
     -109.062,    -0.492624
     -108.689,    -0.692599
     -108.316,     -1.15687
     -107.943,     -1.51355
     -107.570,     -1.62845
     -107.197,     -1.73611
     -106.824,     -2.12961
     -106.451,     -2.78132
     -106.078,     -3.29437
     -105.705,     -3.23670
     -105.332,     -2.53630
     -104.959,     -1.52031
     -104.586,    -0.558763
     -104.213,     0.254977
     -103.840,      1.05635
     -103.467,      1.96320
     -103.094,      2.91936
     -102.721,      3.66070
     -102.348,      3.78612
     -101.975,      3.00000
     -101.602,      1.40479
     -101.229,    -0.469798
     -100.856,     -1.98257
     -100.483,     -2.75696
     -100.110,     -2.80847
     -99.7368,     -2.38975
     -99.3638,     -1.77477
     -98.9908,     -1.19503
     -98.6178,    -0.874466
     -98.2447,    -0.979110
     -97.8717,     -1.52022
     -97.4987,     -2.37652
     -97.1257,     -3.36909
     -96.7527,     -4.23870
     -96.3796,     -4.64489
     -96.0066,     -4.36570
     -95.6336,     -3.53726
     -95.2606,     -2.61032
     -94.8876,     -2.02522
     -94.5145,     -1.95358
     -94.1415,     -2.32790
     -93.7685,     -2.99819
     -93.3955,     -3.78889
     -93.0225,     -4.49375
     -92.6494,     -4.91423
     -92.2764,     -4.86776
     -91.9034,     -4.16168
     -91.5304,     -2.72405
     -91.1573,    -0.837888
     -90.7843,     0.898406
     -90.4113,      1.96870
     -90.0383,      2.29716
     -89.6653,      2.23859
     -89.2923,      2.26474
     -88.9192,      2.62214
     -88.5462,      3.22392
     -88.1732,      3.82578
     -87.8002,      4.23311
     -87.4271,      4.31584
     -87.0541,      3.96176
     -86.6811,      3.15158
     -86.3081,      2.03555
     -85.9351,     0.862490
     -85.5620,    -0.129634
     -85.1890,    -0.737478
     -84.8160,    -0.818060
     -84.4430,    -0.406342
     -84.0700,     0.220091
     -83.6969,     0.714919
     -83.3239,     0.939171
     -82.9509,     0.999566
     -82.5779,      1.00809
     -82.2049,     0.889683
     -81.8318,     0.450124
     -81.4588,    -0.433964
     -81.0858,     -1.68899
     -80.7128,     -2.99830
     -80.3398,     -3.85129
     -79.9667,     -3.77677
     -79.5937,     -2.68758
     -79.2207,     -1.02844
     -78.8477,     0.482729
     -78.4746,      1.31910
     -78.1016,      1.37067
     -77.7286,     0.786177
     -77.3556,    -0.229628
     -76.9826,     -1.37150
     -76.6095,     -2.15311
     -76.2365,     -2.14093
     -75.8635,     -1.36154
     -75.4905,    -0.365159
     -75.1175,     0.203379
     -74.7444,    0.0789037
     -74.3714,    -0.534523
     -73.9984,     -1.22816
     -73.6254,     -1.73868
     -73.2524,     -2.13938
     -72.8793,     -2.69344
     -72.5063,     -3.44619
     -72.1333,     -3.99918
     -71.7603,     -3.81019
     -71.3873,     -2.74381
     -71.0142,     -1.26871
     -70.6412,    -0.129577
     -70.2682,     0.112375
     -69.8952,    -0.699257
     -69.5221,     -2.32057
     -69.1491,     -4.19797
     -68.7761,     -5.63932
     -68.4031,     -6.07745
     -68.0301,     -5.31590
     -67.6570,     -3.63275
     -67.2840,     -1.69323
     -66.9110,    -0.250389
     -66.5380,     0.280466
     -66.1650,    0.0724376
     -65.7919,    -0.313585
     -65.4189,    -0.435857
     -65.0459,    -0.313941
     -64.6729,    -0.332332
     -64.2999,    -0.850186
     -63.9268,     -1.85042
     -63.5538,     -2.90100
     -63.1808,     -3.46638
     -62.8078,     -3.29111
     -62.4348,     -2.52034
     -62.0617,     -1.51730
     -61.6887,    -0.593094
     -61.3157,     0.142133
     -60.9427,     0.737190
     -60.5696,      1.25817
     -60.1966,      1.71603
     -59.8236,      2.12394
     -59.4506,      2.55796
     -59.0776,      3.09449
     -58.7045,      3.69941
     -58.3315,      4.21983
     -57.9585,      4.46257
     -57.5855,      4.24846
     -57.2125,      3.44484
     -56.8394,      2.05422
     -56.4664,     0.353822
     -56.0934,     -1.06672
     -55.7204,     -1.55712
     -55.3474,    -0.858323
     -54.9743,     0.670433
     -54.6013,      2.29712
     -54.2283,      3.37354
     -53.8553,      3.63846
     -53.4823,      3.26964
     -53.1092,      2.69475
     -52.7362,      2.24112
     -52.3632,      1.93027
     -51.9902,      1.63033
     -51.6171,      1.27609
     -51.2441,     0.804268
     -50.8711,    0.0393228
     -50.4981,     -1.07710
     -50.1251,     -2.16075
     -49.7520,     -2.52519
     -49.3790,     -1.74159
     -49.0060,    0.0134148
     -48.6330,      2.15785
     -48.2600,      4.12471
     -47.8869,      5.55847
     -47.5139,      6.26819
     -47.1409,      6.19261
     -46.7679,      5.45021
     -46.3949,      4.30769
     -46.0218,      3.02738
     -45.6488,      1.78958
     -45.2758,     0.760504
     -44.9028,     0.138236
     -44.5298,    0.0880018
     -44.1567,     0.635540
     -43.7837,      1.57661
     -43.4107,      2.46934
     -43.0377,      2.79681
     -42.6647,      2.27158
     -42.2916,      1.09575
     -41.9186,   -0.0846934
     -41.5456,    -0.615104
     -41.1726,    -0.294602
     -40.7995,     0.599330
     -40.4265,      1.63648
     -40.0535,      2.45754
     -39.6805,      2.80486
     -39.3075,      2.58506
     -38.9344,      1.93183
     -38.5614,      1.05542
     -38.1884,   0.00319814
     -37.8154,     -1.30363
     -37.4424,     -2.76349
     -37.0693,     -3.95058
     -36.6963,     -4.37442
     -36.3233,     -3.89090
     -35.9503,     -2.86362
     -35.5773,     -1.90985
     -35.2042,     -1.43688
     -34.8312,     -1.39228
     -34.4582,     -1.40847
     -34.0852,     -1.08662
     -33.7122,    -0.156435
     -33.3391,      1.42822
     -32.9661,      3.34444
     -32.5931,      4.86483
     -32.2201,      5.17530
     -31.8470,      3.93299
     -31.4740,      1.57908
     -31.1010,    -0.913052
     -30.7280,     -2.62812
     -30.3550,     -3.14697
     -29.9819,     -2.57847
     -29.6089,     -1.30385
     -29.2359,     0.277137
     -28.8629,      1.81040
     -28.4899,      2.94027
     -28.1168,      3.36837
     -27.7438,      3.03108
     -27.3708,      2.15864
     -26.9978,      1.11965
     -26.6248,     0.239212
     -26.2517,    -0.273008
     -25.8787,    -0.345825
     -25.5057,   -0.0503222
     -25.1327,     0.468306
     -24.7597,      1.07643
     -24.3866,      1.63495
     -24.0136,      1.94280
     -23.6406,      1.82372
     -23.2676,      1.32282
     -22.8946,     0.760423
     -22.5215,     0.529977
     -22.1485,     0.801745
     -21.7755,      1.36489
     -21.4025,      1.74624
     -21.0294,      1.57148
     -20.6564,     0.904831
     -20.2834,     0.257453
     -19.9104,     0.251944
     -19.5374,      1.23945
     -19.1643,      3.12024
     -18.7913,      5.38048
     -18.4183,      7.27491
     -18.0453,      8.12580
     -17.6723,      7.65246
     -17.2992,      6.14194
     -16.9262,      4.29974
     -16.5532,      2.82476
     -16.1802,      2.01998
     -15.8072,      1.78291
     -15.4341,      1.93340
     -15.0611,      2.45395
     -14.6881,      3.38405
     -14.3151,      4.57677
     -13.9421,      5.65073
     -13.5690,      6.17739
     -13.1960,      5.88182
     -12.8230,      4.71542
     -12.4500,      2.87397
     -12.0769,     0.793734
     -11.7039,    -0.987423
     -11.3309,     -2.05994
     -10.9579,     -2.22021
     -10.5849,     -1.39282
     -10.2118,     0.327990
     -9.83883,      2.51542
     -9.46580,      4.47895
     -9.09278,      5.66384
     -8.71976,      5.98373
     -8.34674,      5.72871
     -7.97372,      5.19276
     -7.60070,      4.43244
     -7.22768,      3.34578
     -6.85466,      1.92161
     -6.48164,     0.403708
     -6.10862,    -0.779968
     -5.73560,     -1.28237
     -5.36258,     -1.08568
     -4.98955,    -0.530351
     -4.61653,    -0.125237
     -4.24351,    -0.292156
     -3.87049,     -1.16301
     -3.49747,     -2.50376
     -3.12445,     -3.83934
     -2.75143,     -4.71603
     -2.37841,     -4.89753
     -2.00539,     -4.40647
     -1.63237,     -3.47995
     -1.25935,     -2.45340
    -0.886326,     -1.56840
    -0.513306,    -0.872992
    -0.140285,    -0.372708
     0.232736,    -0.220194
     0.605757,    -0.573828
     0.978777,     -1.24108
      1.35180,     -1.66087
      1.72482,     -1.36771
      2.09784,    -0.399948
      2.47086,     0.787012
      2.84388,      1.72132
      3.21690,      2.21475
      3.58992,      2.37003
      3.96294,      2.36575
      4.33596,      2.24388
      4.70898,      1.90283
      5.08201,      1.27516
      5.45503,     0.468773
      5.82805,    -0.287280
      6.20107,    -0.820703
      6.57409,     -1.14172
      6.94711,     -1.42040
      7.32013,     -1.82634
      7.69315,     -2.35496
      8.06617,     -2.83244
      8.43919,     -3.10993
      8.81221,     -3.19666
      9.18523,     -3.18781
      9.55826,     -3.15412
      9.93128,     -3.13265
      10.3043,     -3.11059
      10.6773,     -2.95223
      11.0503,     -2.45925
      11.4234,     -1.62827
      11.7964,    -0.788222
      12.1694,    -0.339688
      12.5424,    -0.349114
      12.9154,    -0.502128
      13.2885,    -0.466829
      13.6615,    -0.203937
      14.0345,    0.0774614
      14.4075,     0.130343
      14.7805,    -0.186810
      15.1536,    -0.812718
      15.5266,     -1.45377
      15.8996,     -1.76566
      16.2726,     -1.62271
      16.6456,     -1.14260
      17.0187,    -0.480013
      17.3917,     0.264953
      17.7647,     0.927460
      18.1377,      1.21832
      18.5108,     0.905858
      18.8838,    0.0635588
      19.2568,    -0.921211
      19.6298,     -1.63891
      20.0028,     -1.97301
      20.3759,     -2.12308
      20.7489,     -2.35794
      21.1219,     -2.79714
      21.4949,     -3.38051
      21.8679,     -3.94845
      22.2410,     -4.35048
      22.6140,     -4.52194
      22.9870,     -4.44920
      23.3600,     -4.09850
      23.7330,     -3.48692
      24.1061,     -2.82306
      24.4791,     -2.44236
      24.8521,     -2.52125
      25.2251,     -2.87974
      25.5981,     -3.09515
      25.9712,     -2.82940
      26.3442,     -2.08243
      26.7172,     -1.14216
      27.0902,    -0.278608
      27.4633,     0.504549
      27.8363,      1.40929
      28.2093,      2.55579
      28.5823,      3.77791
      28.9553,      4.71012
      29.3284,      5.06921
      29.7014,      4.84050
      30.0744,      4.22679
      30.4474,      3.50668
      30.8204,      2.94956
      31.1935,      2.73252
      31.5665,      2.83355
      31.9395,      3.05394
      32.3125,      3.22448
      32.6855,      3.36987
      33.0586,      3.62407
      33.4316,      4.01764
      33.8046,      4.40680
      34.1776,      4.59336
      34.5506,      4.46339
      34.9237,      4.03312
      35.2967,      3.43813
      35.6697,      2.90859
      36.0427,      2.72746
      36.4157,      3.16193
      36.7888,      4.35050
      37.1618,      6.18198
      37.5348,      8.31175
      37.9078,      10.3689
      38.2809,      12.1502
      38.6539,      13.6083
      39.0269,      14.7223
      39.3999,      15.4416
      39.7729,      15.7368
      40.1460,      15.6874
      40.5190,      15.5224
      40.8920,      15.5326
      41.2650,      15.8543
      41.6380,      16.3230
      42.0111,      16.5899
      42.3841,      16.3942
      42.7571,      15.7148
      43.1301,      14.7463
      43.5031,      13.8562
      43.8762,      13.5417
      44.2492,      14.2795
      44.6222,      16.3182
      44.9952,      19.5721
      45.3682,      23.6067
      45.7413,      27.6297
      46.1143,      30.6392
      46.4873,      31.8863
      46.8603,      31.3529
      47.2334,      29.7599
      47.6064,      28.0865
      47.9794,      27.0167
      48.3524,      26.6967
      48.7254,      26.9155
      49.0985,      27.4953
      49.4715,      28.4561
      49.8445,      29.7871
      50.2175,      31.1877
      50.5905,      32.1785
      50.9636,      32.4619
      51.3366,      32.0980
      51.7096,      31.3327
      52.0826,      30.3231
      52.4556,      29.0734
      52.8287,      27.6424
      53.2017,      26.3577
      53.5747,      25.6946
      53.9477,      25.8601
      54.3207,      26.5492
      54.6938,      27.1631
      55.0668,      27.2410
      55.4398,      26.6975
      55.8128,      25.7386
      56.1859,      24.6195
      56.5589,      23.4933
      56.9319,      22.4370
      57.3049,      21.5196
      57.6779,      20.7817
      58.0510,      20.1642
      58.4240,      19.4891
      58.7970,      18.5817
      59.1700,      17.5117
      59.5430,      16.6816
      59.9161,      16.5098
      60.2891,      16.9640
      60.6621,      17.4879
      61.0351,      17.4210
      61.4081,      16.4553
      61.7812,      14.7278
      62.1542,      12.5835
      62.5272,      10.3151
      62.9002,      8.08790
      63.2732,      5.99090
      63.6463,      4.05844
      64.0193,      2.28159
      64.3923,     0.707110
      64.7653,    -0.470318
      65.1384,     -1.01231
      65.5114,    -0.896272
      65.8844,    -0.459800
      66.2574,    -0.227386
      66.6304,    -0.501787
      67.0035,     -1.09549
      67.3765,     -1.54503
