# Freq.: 9.1830000e+09Hz; t_int: 333.47299h; (l,b) = (34.197085, -0.59168686)
     -197.545,      0.00000
     -197.172,      0.00000
     -196.799,      0.00000
     -196.426,      0.00000
     -196.053,      0.00000
     -195.680,      0.00000
     -195.307,      0.00000
     -194.934,      0.00000
     -194.561,      0.00000
     -194.188,      0.00000
     -193.815,      0.00000
     -193.442,    -0.289780
     -193.069,    -0.819370
     -192.696,     -1.35100
     -192.323,     -1.57769
     -191.950,     -1.36938
     -191.577,    -0.813527
     -191.204,   -0.0923098
     -190.831,     0.629980
     -190.458,      1.23823
     -190.085,      1.67962
     -189.712,      1.97250
     -189.339,      2.16612
     -188.966,      2.28055
     -188.593,      2.29740
     -188.220,      2.18366
     -187.847,      1.89729
     -187.474,      1.40890
     -187.101,     0.774104
     -186.728,     0.165135
     -186.355,    -0.232043
     -185.982,    -0.373619
     -185.609,    -0.405115
     -185.236,    -0.558553
     -184.863,    -0.990872
     -184.490,     -1.67318
     -184.117,     -2.38891
     -183.744,     -2.84445
     -183.371,     -2.84480
     -182.998,     -2.42573
     -182.625,     -1.82707
     -182.252,     -1.31673
     -181.879,     -1.03421
     -181.506,    -0.996077
     -181.133,     -1.19140
     -180.760,     -1.59034
     -180.387,     -2.06083
     -180.014,     -2.37440
     -179.641,     -2.37574
     -179.268,     -2.12921
     -178.896,     -1.84173
     -178.523,     -1.64133
     -178.150,     -1.46763
     -177.777,     -1.16168
     -177.404,    -0.606914
     -177.031,     0.199516
     -176.658,      1.12609
     -176.285,      1.93672
     -175.912,      2.40839
     -175.539,      2.45677
     -175.166,      2.14071
     -174.793,      1.57511
     -174.420,     0.876556
     -174.047,     0.155921
     -173.674,    -0.503900
     -173.301,     -1.06595
     -172.928,     -1.50052
     -172.555,     -1.75509
     -172.182,     -1.82114
     -171.809,     -1.79318
     -171.436,     -1.76567
     -171.063,     -1.69158
     -170.690,     -1.44440
     -170.317,     -1.00420
     -169.944,    -0.481017
     -169.571,    0.0314542
     -169.198,     0.518271
     -168.825,     0.949166
     -168.452,      1.21488
     -168.079,      1.21165
     -167.706,     0.965496
     -167.333,     0.638866
     -166.960,     0.403864
     -166.587,     0.295130
     -166.214,     0.169837
     -165.841,    -0.167337
     -165.468,    -0.760757
     -165.095,     -1.42521
     -164.722,     -1.88218
     -164.349,     -1.96119
     -163.976,     -1.69958
     -163.603,     -1.33019
     -163.230,     -1.16310
     -162.857,     -1.36061
     -162.484,     -1.77864
     -162.111,     -2.07979
     -161.738,     -2.02274
     -161.365,     -1.63356
     -160.992,     -1.12835
     -160.619,    -0.689567
     -160.246,    -0.295915
     -159.873,     0.217761
     -159.500,     0.904994
     -159.127,      1.54878
     -158.754,      1.80534
     -158.381,      1.48893
     -158.008,     0.715849
     -157.635,    -0.158511
     -157.262,    -0.730212
     -156.889,    -0.784415
     -156.516,    -0.428686
     -156.143,    0.0299677
     -155.770,     0.358860
     -155.397,     0.528013
     -155.024,     0.598499
     -154.651,     0.577538
     -154.278,     0.421711
     -153.905,     0.130611
     -153.532,    -0.216019
     -153.159,    -0.510047
     -152.786,    -0.674687
     -152.413,    -0.679719
     -152.040,    -0.551259
     -151.667,    -0.392773
     -151.294,    -0.347486
     -150.921,    -0.483706
     -150.548,    -0.706749
     -150.175,    -0.787269
     -149.802,    -0.489991
     -149.429,     0.277934
     -149.056,      1.39798
     -148.683,      2.59934
     -148.310,      3.58122
     -147.937,      4.10514
     -147.564,      4.06472
     -147.191,      3.57307
     -146.818,      2.97394
     -146.445,      2.64422
     -146.073,      2.70282
     -145.700,      2.91959
     -145.327,      2.91352
     -144.954,      2.44761
     -144.581,      1.59362
     -144.208,     0.657565
     -143.835,   -0.0762895
     -143.462,    -0.549708
     -143.089,    -0.868409
     -142.716,     -1.05437
     -142.343,    -0.935836
     -141.970,    -0.349139
     -141.597,     0.565153
     -141.224,      1.34550
     -140.851,      1.54652
     -140.478,      1.09934
     -140.105,     0.348501
     -139.732,    -0.227015
     -139.359,    -0.340452
     -138.986,   -0.0505623
     -138.613,     0.320828
     -138.240,     0.442122
     -137.867,     0.215034
     -137.494,    -0.188123
     -137.121,    -0.505792
     -136.748,    -0.597054
     -136.375,    -0.500645
     -136.002,    -0.334222
     -135.629,    -0.161417
     -135.256,    0.0344915
     -134.883,     0.251792
     -134.510,     0.380299
     -134.137,     0.252684
     -133.764,    -0.199224
     -133.391,    -0.834687
     -133.018,     -1.33752
     -132.645,     -1.38816
     -132.272,    -0.886037
     -131.899,   -0.0501905
     -131.526,     0.723718
     -131.153,      1.13653
     -130.780,      1.14113
     -130.407,     0.885980
     -130.034,     0.551561
     -129.661,     0.215219
     -129.288,    -0.173188
     -128.915,    -0.685754
     -128.542,     -1.26757
     -128.169,     -1.71447
     -127.796,     -1.84425
     -127.423,     -1.67585
     -127.050,     -1.37535
     -126.677,     -1.03923
     -126.304,    -0.632165
     -125.931,    -0.152673
     -125.558,     0.261098
     -125.185,     0.458445
     -124.812,     0.436290
     -124.439,     0.321979
     -124.066,     0.251726
     -123.693,     0.286680
     -123.320,     0.371101
     -122.947,     0.337682
     -122.574,    0.0262369
     -122.201,    -0.546862
     -121.828,     -1.16273
     -121.455,     -1.56246
     -121.082,     -1.61332
     -120.709,     -1.32511
     -120.336,    -0.767560
     -119.963,   -0.0104521
     -119.590,     0.873865
     -119.217,      1.77285
     -118.844,      2.50982
     -118.471,      2.88748
     -118.098,      2.80053
     -117.725,      2.32693
     -117.352,      1.69153
     -116.979,      1.11637
     -116.606,     0.708505
     -116.233,     0.492684
     -115.860,     0.498502
     -115.487,     0.742354
     -115.114,      1.12489
     -114.741,      1.41806
     -114.368,      1.40615
     -113.995,      1.04730
     -113.622,     0.493703
     -113.250,   -0.0546666
     -112.877,    -0.519586
     -112.504,    -0.940790
     -112.131,     -1.29087
     -111.758,     -1.36388
     -111.385,    -0.935691
     -111.012,   -0.0231400
     -110.639,      1.09037
     -110.266,      2.09157
     -109.893,      2.84440
     -109.520,      3.37126
     -109.147,      3.70724
     -108.774,      3.81477
     -108.401,      3.62204
     -108.028,      3.12000
     -107.655,      2.40985
     -107.282,      1.64872
     -106.909,     0.950167
     -106.536,     0.342876
     -106.163,    -0.180356
     -105.790,    -0.597704
     -105.417,    -0.862824
     -105.044,    -0.961185
     -104.671,    -0.933724
     -104.298,    -0.844389
     -103.925,    -0.741040
     -103.552,    -0.650787
     -103.179,    -0.603054
     -102.806,    -0.634973
     -102.433,    -0.756077
     -102.060,    -0.923105
     -101.687,     -1.06608
     -101.314,     -1.11481
     -100.941,    -0.985640
     -100.568,    -0.586534
     -100.195,     0.112495
     -99.8219,      1.00407
     -99.4489,      1.85133
     -99.0759,      2.38732
     -98.7029,      2.44923
     -98.3300,      2.08800
     -97.9570,      1.57887
     -97.5840,      1.26046
     -97.2110,      1.27775
     -96.8380,      1.46958
     -96.4650,      1.53086
     -96.0920,      1.28159
     -95.7190,     0.780203
     -95.3460,     0.211409
     -94.9731,    -0.293202
     -94.6001,    -0.693255
     -94.2271,    -0.904632
     -93.8541,    -0.703868
     -93.4811,     0.124854
     -93.1081,      1.51035
     -92.7351,      3.00379
     -92.3621,      4.01248
     -91.9892,      4.16746
     -91.6162,      3.54175
     -91.2432,      2.57918
     -90.8702,      1.79269
     -90.4972,      1.45570
     -90.1242,      1.52073
     -89.7512,      1.76798
     -89.3782,      1.96899
     -89.0052,      1.93834
     -88.6323,      1.55905
     -88.2593,     0.861996
     -87.8863,    0.0719601
     -87.5133,    -0.497647
     -87.1403,    -0.650936
     -86.7673,    -0.433504
     -86.3943,   -0.0590613
     -86.0213,     0.295295
     -85.6483,     0.632605
     -85.2754,      1.06735
     -84.9024,      1.61886
     -84.5294,      2.12699
     -84.1564,      2.40541
     -83.7834,      2.42889
     -83.4104,      2.31746
     -83.0374,      2.16774
     -82.6644,      1.95688
     -82.2914,      1.60381
     -81.9185,      1.09027
     -81.5455,     0.537402
     -81.1725,     0.186745
     -80.7995,     0.255291
     -80.4265,     0.728263
     -80.0535,      1.29404
     -79.6805,      1.55787
     -79.3075,      1.35196
     -78.9345,     0.815021
     -78.5616,     0.207607
     -78.1886,    -0.270877
     -77.8156,    -0.520414
     -77.4426,    -0.534146
     -77.0696,    -0.406804
     -76.6966,    -0.276349
     -76.3236,    -0.192676
     -75.9506,   -0.0797342
     -75.5777,     0.113795
     -75.2047,     0.274866
     -74.8317,     0.234472
     -74.4587,   -0.0107493
     -74.0857,    -0.286647
     -73.7127,    -0.432670
     -73.3397,    -0.417395
     -72.9667,    -0.300586
     -72.5937,    -0.185107
     -72.2208,    -0.193672
     -71.8478,    -0.401589
     -71.4748,    -0.767770
     -71.1018,     -1.14992
     -70.7288,     -1.37724
     -70.3558,     -1.33557
     -69.9828,     -1.07011
     -69.6098,    -0.820404
     -69.2368,    -0.859329
     -68.8639,     -1.24537
     -68.4909,     -1.78094
     -68.1179,     -2.22188
     -67.7449,     -2.45807
     -67.3719,     -2.49559
     -66.9989,     -2.38031
     -66.6259,     -2.18834
     -66.2529,     -2.00503
     -65.8799,     -1.85772
     -65.5070,     -1.71229
     -65.1340,     -1.54468
     -64.7610,     -1.36666
     -64.3880,     -1.19010
     -64.0150,     -1.02016
     -63.6420,    -0.883671
     -63.2690,    -0.825915
     -62.8960,    -0.863249
     -62.5230,    -0.937709
     -62.1501,    -0.919025
     -61.7771,    -0.676479
     -61.4041,    -0.192598
     -61.0311,     0.373149
     -60.6581,     0.748257
     -60.2851,     0.704735
     -59.9121,     0.197536
     -59.5391,    -0.598995
     -59.1661,     -1.38217
     -58.7932,     -1.91385
     -58.4202,     -2.18385
     -58.0472,     -2.36326
     -57.6742,     -2.57146
     -57.3012,     -2.74328
     -56.9282,     -2.76229
     -56.5552,     -2.63679
     -56.1822,     -2.45785
     -55.8093,     -2.23841
     -55.4363,     -1.88162
     -55.0633,     -1.30364
     -54.6903,    -0.557624
     -54.3173,     0.167258
     -53.9443,     0.694189
     -53.5713,      1.02130
     -53.1983,      1.29147
     -52.8253,      1.58058
     -52.4524,      1.78462
     -52.0794,      1.76339
     -51.7064,      1.54504
     -51.3334,      1.33098
     -50.9604,      1.29844
     -50.5874,      1.41131
     -50.2144,      1.43754
     -49.8414,      1.17096
     -49.4684,     0.632205
     -49.0955,    0.0408535
     -48.7225,    -0.389236
     -48.3495,    -0.610639
     -47.9765,    -0.725228
     -47.6035,    -0.833697
     -47.2305,    -0.909647
     -46.8575,    -0.825310
     -46.4845,    -0.493618
     -46.1115,    0.0226198
     -45.7386,     0.534611
     -45.3656,     0.856656
     -44.9926,     0.916393
     -44.6196,     0.751109
     -44.2466,     0.433340
     -43.8736,    0.0245134
     -43.5006,    -0.426293
     -43.1276,    -0.864905
     -42.7547,     -1.20086
     -42.3817,     -1.30522
     -42.0087,     -1.10148
     -41.6357,    -0.688467
     -41.2627,    -0.322780
     -40.8897,    -0.221117
     -40.5167,    -0.375842
     -40.1437,    -0.568512
     -39.7707,    -0.541561
     -39.3978,    -0.172907
     -39.0248,     0.442409
     -38.6518,      1.03274
     -38.2788,      1.29583
     -37.9058,      1.07898
     -37.5328,     0.490040
     -37.1598,    -0.153669
     -36.7868,    -0.537904
     -36.4138,    -0.567217
     -36.0409,    -0.393256
     -35.6679,    -0.239348
     -35.2949,    -0.194096
     -34.9219,    -0.160318
     -34.5489,   0.00674524
     -34.1759,     0.323616
     -33.8029,     0.649460
     -33.4299,     0.802083
     -33.0569,     0.671014
     -32.6840,     0.271014
     -32.3110,    -0.234479
     -31.9380,    -0.592760
     -31.5650,    -0.638070
     -31.1920,    -0.431594
     -30.8190,    -0.204816
     -30.4460,    -0.181689
     -30.0730,    -0.458237
     -29.7000,    -0.975178
     -29.3271,     -1.53828
     -28.9541,     -1.89991
     -28.5811,     -1.88557
     -28.2081,     -1.46260
     -27.8351,    -0.710954
     -27.4621,     0.229500
     -27.0891,      1.18531
     -26.7161,      1.98200
     -26.3431,      2.50061
     -25.9702,      2.70629
     -25.5972,      2.61073
     -25.2242,      2.22659
     -24.8512,      1.59679
     -24.4782,     0.858809
     -24.1052,     0.212553
     -23.7322,    -0.216971
     -23.3592,    -0.449282
     -22.9862,    -0.547830
     -22.6133,    -0.499259
     -22.2403,    -0.256549
     -21.8673,     0.123208
     -21.4943,     0.467208
     -21.1213,     0.642353
     -20.7483,     0.668283
     -20.3753,     0.639088
     -20.0023,     0.604904
     -19.6294,     0.607986
     -19.2564,     0.760550
     -18.8834,      1.14729
     -18.5104,      1.64920
     -18.1374,      1.96675
     -17.7644,      1.85406
     -17.3914,      1.31009
     -17.0184,     0.578287
     -16.6454,    0.0167608
     -16.2725,   -0.0752365
     -15.8995,     0.377420
     -15.5265,      1.15979
     -15.1535,      1.88113
     -14.7805,      2.21603
     -14.4075,      2.08784
     -14.0345,      1.64655
     -13.6615,      1.08939
     -13.2885,     0.516595
     -12.9156,   -0.0545787
     -12.5426,    -0.588524
     -12.1696,     -1.00325
     -11.7966,     -1.24700
     -11.4236,     -1.34853
     -11.0506,     -1.36336
     -10.6776,     -1.30181
     -10.3046,     -1.12111
     -9.93165,    -0.760383
     -9.55866,    -0.203558
     -9.18567,     0.428558
     -8.81268,     0.853198
     -8.43969,     0.779984
     -8.06670,     0.158801
     -7.69372,    -0.726806
     -7.32073,     -1.43422
     -6.94774,     -1.63994
     -6.57475,     -1.28805
     -6.20176,    -0.554999
     -5.82877,     0.274414
     -5.45578,     0.947445
     -5.08279,      1.37037
     -4.70981,      1.64028
     -4.33682,      1.89338
     -3.96383,      2.07365
     -3.59084,      1.91002
     -3.21785,      1.20498
     -2.84486,     0.121531
     -2.47187,    -0.896719
     -2.09889,     -1.49335
     -1.72590,     -1.64378
     -1.35291,     -1.57800
    -0.979919,     -1.56857
    -0.606930,     -1.79176
    -0.233942,     -2.25114
     0.139047,     -2.74189
     0.512036,     -2.95404
     0.885024,     -2.70440
      1.25801,     -2.08724
      1.63100,     -1.39890
      2.00399,    -0.930076
      2.37698,    -0.805024
      2.74997,    -0.942860
      3.12296,     -1.11289
      3.49594,     -1.05810
      3.86893,    -0.675431
      4.24192,    -0.151241
      4.61491,     0.123787
      4.98790,    -0.127991
      5.36089,    -0.796459
      5.73388,     -1.44837
      6.10687,     -1.68038
      6.47985,     -1.39330
      6.85284,    -0.756736
      7.22583,   -0.0187537
      7.59882,     0.602677
      7.97181,     0.943197
      8.34480,     0.940541
      8.71779,     0.697254
      9.09077,     0.438506
      9.46376,     0.329943
      9.83675,     0.314057
      10.2097,     0.154659
      10.5827,    -0.331369
      10.9557,     -1.07045
      11.3287,     -1.75391
      11.7017,     -2.08625
      12.0747,     -2.02807
      12.4477,     -1.78148
      12.8207,     -1.56228
      13.1937,     -1.43512
      13.5666,     -1.33234
      13.9396,     -1.15045
      14.3126,    -0.847585
      14.6856,    -0.514459
      15.0586,    -0.332248
      15.4316,    -0.416853
      15.8046,    -0.715974
      16.1776,     -1.05400
      16.5505,     -1.23560
      16.9235,     -1.12898
      17.2965,    -0.736385
      17.6695,    -0.217799
      18.0425,     0.190834
      18.4155,     0.321508
      18.7885,     0.176143
      19.1615,   -0.0769644
      19.5345,    -0.232514
      19.9074,    -0.247198
      20.2804,    -0.326611
      20.6534,    -0.752535
      21.0264,     -1.57992
      21.3994,     -2.51368
      21.7724,     -3.08340
      22.1454,     -2.94116
      22.5184,     -2.06515
      22.8914,    -0.775463
      23.2643,     0.427553
      23.6373,      1.11175
      24.0103,      1.11595
      24.3833,     0.605158
      24.7563,   -0.0501417
      25.1293,    -0.493875
      25.5023,    -0.544076
      25.8753,    -0.200075
      26.2483,     0.432156
      26.6212,      1.18622
      26.9942,      1.84559
      27.3672,      2.18873
      27.7402,      2.10947
      28.1132,      1.73322
      28.4862,      1.37322
      28.8592,      1.30054
      29.2322,      1.53173
      29.6052,      1.84339
      29.9781,      1.97248
      30.3511,      1.79599
      30.7241,      1.38008
      31.0971,     0.928428
      31.4701,     0.669610
      31.8431,     0.722596
      32.2161,      1.03845
      32.5891,      1.48625
      32.9620,      1.98233
      33.3350,      2.49178
      33.7080,      2.92181
      34.0810,      3.09985
      34.4540,      2.89646
      34.8270,      2.35335
      35.2000,      1.70552
      35.5730,      1.28095
      35.9460,      1.29991
      36.3189,      1.70461
      36.6919,      2.20277
      37.0649,      2.50974
      37.4379,      2.54606
      37.8109,      2.40095
      38.1839,      2.15758
      38.5569,      1.84551
      38.9299,      1.56939
      39.3029,      1.53869
      39.6758,      1.85852
      40.0488,      2.37209
      40.4218,      2.81544
      40.7948,      3.07903
      41.1678,      3.24888
      41.5408,      3.44871
      41.9138,      3.71342
      42.2868,      3.97959
      42.6598,      4.12737
      43.0327,      4.02749
      43.4057,      3.60150
      43.7787,      2.88804
      44.1517,      2.06401
      44.5247,      1.37384
      44.8977,      1.00144
      45.2707,     0.992868
      45.6437,      1.28932
      46.0167,      1.80765
      46.3896,      2.46880
      46.7626,      3.16714
      47.1356,      3.75889
      47.5086,      4.10892
      47.8816,      4.15361
      48.2546,      3.93747
      48.6276,      3.61468
      49.0006,      3.40169
      49.3736,      3.46956
      49.7465,      3.82010
      50.1195,      4.24562
      50.4925,      4.43948
      50.8655,      4.19351
      51.2385,      3.53374
      51.6115,      2.70427
      51.9845,      2.02674
      52.3575,      1.73869
      52.7304,      1.91684
      53.1034,      2.50544
      53.4764,      3.37991
      53.8494,      4.38821
      54.2224,      5.37866
      54.5954,      6.23956
      54.9684,      6.93705
      55.3414,      7.49840
      55.7144,      7.91593
      56.0873,      8.06012
      56.4603,      7.74301
      56.8333,      6.91820
      57.2063,      5.80442
      57.5793,      4.76769
      57.9523,      4.05788
      58.3253,      3.66146
      58.6983,      3.41672
      59.0713,      3.24637
      59.4442,      3.21828
      59.8172,      3.35570
      60.1902,      3.46020
      60.5632,      3.23171
      60.9362,      2.59229
      61.3092,      1.83365
      61.6822,      1.41492
      62.0552,      1.63294
      62.4282,      2.43577
      62.8011,      3.42730
      63.1741,      4.03951
      63.5471,      3.86553
      63.9201,      2.96641
      64.2931,      1.83284
      64.6661,     0.981353
      65.0391,     0.589493
      65.4121,     0.515652
      65.7850,     0.578045
      66.1580,     0.741709
      66.5310,      1.08848
      66.9040,      1.67633
      67.2770,      2.41273
