# Freq.: 9.1830000e+09Hz; t_int: 476.61126h; (l,b) = (34.030782, -0.059341353)
     -197.471,    0.0244377
     -197.098,    0.0245964
     -196.725,    0.0247551
     -196.352,    0.0249139
     -195.979,    0.0250726
     -195.606,    0.0252313
     -195.233,    0.0253901
     -194.860,    0.0255488
     -194.487,    0.0257075
     -194.114,    0.0258662
     -193.741,    0.0260250
     -193.368,    -0.186624
     -192.995,    -0.605843
     -192.622,     -1.47453
     -192.249,     -2.48224
     -191.876,     -3.25214
     -191.503,     -3.51399
     -191.130,     -3.22229
     -190.757,     -2.57338
     -190.384,     -1.88083
     -190.011,     -1.34843
     -189.638,    -0.943402
     -189.265,    -0.522044
     -188.892,   -0.0556941
     -188.519,     0.321273
     -188.146,     0.471380
     -187.773,     0.401885
     -187.400,     0.243568
     -187.027,     0.121300
     -186.654,    0.0668631
     -186.281,    0.0398722
     -185.908, -0.000640342
     -185.535,   -0.0566678
     -185.162,   -0.0967078
     -184.789,   -0.0835983
     -184.416,   -0.0127533
     -184.043,    0.0866252
     -183.670,     0.219088
     -183.297,     0.458436
     -182.924,     0.857139
     -182.551,      1.34128
     -182.178,      1.74006
     -181.805,      1.89666
     -181.433,      1.73019
     -181.060,      1.24989
     -180.687,     0.574829
     -180.314,   -0.0851708
     -179.941,    -0.533521
     -179.568,    -0.677568
     -179.195,    -0.506366
     -178.822,   -0.0496528
     -178.449,     0.565201
     -178.076,      1.05736
     -177.703,      1.09554
     -177.330,     0.510609
     -176.957,    -0.574460
     -176.584,     -1.80354
     -176.211,     -2.78788
     -175.838,     -3.31495
     -175.465,     -3.42248
     -175.092,     -3.28896
     -174.719,     -3.06307
     -174.346,     -2.80792
     -173.973,     -2.56879
     -173.600,     -2.40597
     -173.227,     -2.31862
     -172.854,     -2.18584
     -172.481,     -1.85361
     -172.108,     -1.30302
     -171.735,    -0.709472
     -171.362,    -0.295646
     -170.989,    -0.120919
     -170.616,   -0.0749634
     -170.243,   -0.0993880
     -169.870,    -0.292236
     -169.497,    -0.669296
     -169.124,    -0.921697
     -168.751,    -0.628485
     -168.378,     0.259680
     -168.005,      1.29874
     -167.632,      1.96644
     -167.259,      2.11379
     -166.886,      1.98413
     -166.513,      1.88274
     -166.140,      1.90131
     -165.767,      1.94347
     -165.394,      1.93259
     -165.021,      1.90822
     -164.648,      1.92342
     -164.275,      1.94363
     -163.902,      1.90436
     -163.529,      1.82869
     -163.156,      1.82407
     -162.783,      1.93577
     -162.410,      2.02098
     -162.037,      1.81254
     -161.664,      1.14018
     -161.291,     0.105976
     -160.918,    -0.939700
     -160.545,     -1.60296
     -160.172,     -1.67637
     -159.799,     -1.21969
     -159.426,    -0.463686
     -159.053,     0.325336
     -158.680,     0.922130
     -158.307,      1.20266
     -157.934,      1.21447
     -157.561,      1.16416
     -157.188,      1.25532
     -156.815,      1.50682
     -156.442,      1.76941
     -156.069,      1.93731
     -155.696,      2.09289
     -155.323,      2.42104
     -154.950,      3.03056
     -154.577,      3.87997
     -154.204,      4.81933
     -153.831,      5.64940
     -153.458,      6.16631
     -153.085,      6.23026
     -152.712,      5.84522
     -152.339,      5.17203
     -151.966,      4.44320
     -151.593,      3.83882
     -151.220,      3.40873
     -150.847,      3.09093
     -150.474,      2.81125
     -150.101,      2.57802
     -149.728,      2.46717
     -149.355,      2.50006
     -148.982,      2.56778
     -148.609,      2.52415
     -148.236,      2.35022
     -147.863,      2.19648
     -147.490,      2.24625
     -147.117,      2.50362
     -146.744,      2.68882
     -146.371,      2.40177
     -145.998,      1.48077
     -145.625,     0.205058
     -145.252,    -0.913788
     -144.879,     -1.54925
     -144.506,     -1.73878
     -144.133,     -1.67715
     -143.760,     -1.43574
     -143.387,    -0.948870
     -143.014,    -0.220263
     -142.641,     0.544622
     -142.268,      1.00999
     -141.895,     0.884396
     -141.522,    0.0859441
     -141.149,     -1.16645
     -140.776,     -2.41664
     -140.403,     -3.20560
     -140.030,     -3.32308
     -139.657,     -2.87882
     -139.284,     -2.15801
     -138.911,     -1.40157
     -138.538,    -0.685577
     -138.165,    0.0109517
     -137.792,     0.621632
     -137.419,     0.913979
     -137.046,     0.664903
     -136.673,   -0.0769642
     -136.300,    -0.961574
     -135.927,     -1.58438
     -135.554,     -1.73053
     -135.181,     -1.40925
     -134.808,    -0.754072
     -134.435,    0.0651220
     -134.062,     0.888854
     -133.689,      1.58162
     -133.316,      2.00890
     -132.943,      2.04440
     -132.570,      1.67551
     -132.197,      1.10477
     -131.824,     0.670524
     -131.451,     0.608426
     -131.078,     0.882480
     -130.705,      1.24443
     -130.332,      1.44284
     -129.959,      1.38477
     -129.586,      1.14490
     -129.213,     0.858875
     -128.840,     0.596664
     -128.467,     0.327528
     -128.094,    0.0293524
     -127.721,    -0.193093
     -127.348,    -0.174484
     -126.975,     0.119967
     -126.602,     0.524090
     -126.229,     0.787573
     -125.856,     0.727123
     -125.483,     0.300285
     -125.110,    -0.387949
     -124.737,     -1.12075
     -124.364,     -1.64578
     -123.991,     -1.78555
     -123.618,     -1.53999
     -123.245,     -1.09111
     -122.872,    -0.665109
     -122.499,    -0.372741
     -122.126,    -0.192934
     -121.753,   -0.0687766
     -121.380,    0.0497833
     -121.007,     0.230246
     -120.634,     0.516177
     -120.261,     0.828408
     -119.888,     0.982211
     -119.516,     0.857304
     -119.143,     0.528289
     -118.770,     0.202180
     -118.397,    0.0330997
     -118.024,  -0.00942236
     -117.651,    -0.122002
     -117.278,    -0.533965
     -116.905,     -1.34820
     -116.532,     -2.42578
     -116.159,     -3.39763
     -115.786,     -3.87834
     -115.413,     -3.76381
     -115.040,     -3.30603
     -114.667,     -2.85075
     -114.294,     -2.53147
     -113.921,     -2.25690
     -113.548,     -1.93340
     -113.175,     -1.60286
     -112.802,     -1.36887
     -112.429,     -1.26090
     -112.056,     -1.18782
     -111.683,     -1.00520
     -111.310,    -0.657009
     -110.937,    -0.287012
     -110.564,    -0.181565
     -110.191,    -0.535623
     -109.818,     -1.23918
     -109.445,     -1.91207
     -109.072,     -2.18952
     -108.699,     -1.99055
     -108.326,     -1.50722
     -107.953,    -0.971360
     -107.580,    -0.496808
     -107.207,    -0.131381
     -106.834,    0.0579767
     -106.461,    0.0270601
     -106.088,    -0.188559
     -105.715,    -0.539325
     -105.342,     -1.02696
     -104.969,     -1.60666
     -104.596,     -2.06368
     -104.223,     -2.11675
     -103.850,     -1.69394
     -103.477,     -1.05100
     -103.104,    -0.561985
     -102.731,    -0.399428
     -102.358,    -0.436018
     -101.985,    -0.417292
     -101.612,    -0.178679
     -101.239,     0.267703
     -100.866,     0.769042
     -100.493,      1.12991
     -100.120,      1.22682
     -99.7468,      1.07537
     -99.3738,     0.790698
     -99.0008,     0.462368
     -98.6278,    0.0579194
     -98.2548,    -0.530364
     -97.8818,     -1.31563
     -97.5089,     -2.10780
     -97.1359,     -2.62601
     -96.7629,     -2.73394
     -96.3899,     -2.52313
     -96.0169,     -2.15962
     -95.6439,     -1.72057
     -95.2709,     -1.21017
     -94.8979,    -0.639983
     -94.5249,  -0.00614522
     -94.1519,     0.748014
     -93.7789,      1.63244
     -93.4059,      2.48626
     -93.0329,      3.05208
     -92.6599,      3.20259
     -92.2869,      3.04652
     -91.9139,      2.80102
     -91.5409,      2.59888
     -91.1680,      2.42482
     -90.7950,      2.19895
     -90.4220,      1.89048
     -90.0490,      1.54556
     -89.6760,      1.22481
     -89.3030,     0.948982
     -88.9300,     0.706412
     -88.5570,     0.472717
     -88.1840,     0.219971
     -87.8110,   -0.0422261
     -87.4380,    -0.220174
     -87.0650,    -0.180542
     -86.6920,     0.119489
     -86.3190,     0.559644
     -85.9460,     0.940825
     -85.5730,      1.14599
     -85.2001,      1.20649
     -84.8271,      1.21669
     -84.4541,      1.21718
     -84.0811,      1.17381
     -83.7081,      1.04409
     -83.3351,     0.849366
     -82.9621,     0.682741
     -82.5891,     0.620105
     -82.2161,     0.613324
     -81.8431,     0.521824
     -81.4701,     0.275515
     -81.0971,   -0.0458745
     -80.7241,    -0.317282
     -80.3511,    -0.489309
     -79.9781,    -0.584789
     -79.6051,    -0.651067
     -79.2321,    -0.746622
     -78.8591,    -0.906935
     -78.4862,     -1.09756
     -78.1132,     -1.25210
     -77.7402,     -1.35804
     -77.3672,     -1.44998
     -76.9942,     -1.51266
     -76.6212,     -1.43846
     -76.2482,     -1.10530
     -75.8752,    -0.480094
     -75.5022,     0.369394
     -75.1292,      1.33701
     -74.7562,      2.30223
     -74.3832,      3.08723
     -74.0102,      3.44993
     -73.6372,      3.20094
     -73.2642,      2.38577
     -72.8912,      1.35880
     -72.5182,     0.630329
     -72.1453,     0.576976
     -71.7723,      1.25250
     -71.3993,      2.43543
     -71.0263,      3.80843
     -70.6533,      5.07717
     -70.2803,      5.99263
     -69.9073,      6.39647
     -69.5343,      6.32754
     -69.1613,      6.05649
     -68.7883,      5.96257
     -68.4153,      6.35307
     -68.0423,      7.33997
     -67.6693,      8.78890
     -67.2963,      10.3615
     -66.9233,      11.6872
     -66.5503,      12.5795
     -66.1774,      13.0937
     -65.8044,      13.3402
     -65.4314,      13.2631
     -65.0584,      12.6682
     -64.6854,      11.4602
     -64.3124,      9.79864
     -63.9394,      8.04384
     -63.5664,      6.59760
     -63.1934,      5.73495
     -62.8204,      5.47264
     -62.4474,      5.55738
     -62.0744,      5.62293
     -61.7014,      5.42780
     -61.3284,      4.99560
     -60.9554,      4.53588
     -60.5824,      4.21536
     -60.2094,      4.01717
     -59.8365,      3.83305
     -59.4635,      3.64733
     -59.0905,      3.57731
     -58.7175,      3.73904
     -58.3445,      4.09554
     -57.9715,      4.42675
     -57.5985,      4.44482
     -57.2255,      3.96629
     -56.8525,      3.00889
     -56.4795,      1.77961
     -56.1065,     0.617743
     -55.7335,    -0.121279
     -55.3605,    -0.280787
     -54.9875,   -0.0458880
     -54.6145,     0.210337
     -54.2415,     0.259970
     -53.8685,     0.172324
     -53.4956,     0.151334
     -53.1226,     0.269100
     -52.7496,     0.366068
     -52.3766,     0.200563
     -52.0036,    -0.299073
     -51.6306,    -0.927380
     -51.2576,     -1.34409
     -50.8846,     -1.30865
     -50.5116,    -0.801765
     -50.1386,   -0.0185708
     -49.7656,     0.707850
     -49.3926,      1.07723
     -49.0196,      1.02786
     -48.6466,     0.754778
     -48.2736,     0.476235
     -47.9006,     0.217101
     -47.5277,    -0.137142
     -47.1547,    -0.620964
     -46.7817,     -1.10132
     -46.4087,     -1.41588
     -46.0357,     -1.54325
     -45.6627,     -1.59669
     -45.2897,     -1.65795
     -44.9167,     -1.65369
     -44.5437,     -1.42548
     -44.1707,    -0.914734
     -43.7977,    -0.242033
     -43.4247,     0.408253
     -43.0517,     0.945554
     -42.6787,      1.38119
     -42.3057,      1.69739
     -41.9327,      1.76155
     -41.5597,      1.41897
     -41.1868,     0.689085
     -40.8138,    -0.161006
     -40.4408,    -0.798729
     -40.0678,     -1.10630
     -39.6948,     -1.25117
     -39.3218,     -1.45835
     -38.9488,     -1.73476
     -38.5758,     -1.84214
     -38.2028,     -1.54582
     -37.8298,    -0.885657
     -37.4568,    -0.187957
     -37.0838,     0.200146
     -36.7108,     0.178675
     -36.3378,    -0.100672
     -35.9648,    -0.446391
     -35.5918,    -0.771876
     -35.2188,     -1.02922
     -34.8459,     -1.10690
     -34.4729,    -0.898789
     -34.0999,    -0.459733
     -33.7269,   -0.0112916
     -33.3539,     0.238986
     -32.9809,     0.270493
     -32.6079,     0.235799
     -32.2349,     0.276263
     -31.8619,     0.351899
     -31.4889,     0.257658
     -31.1159,    -0.183575
     -30.7429,    -0.919446
     -30.3699,     -1.62307
     -29.9969,     -1.86214
     -29.6239,     -1.40421
     -29.2509,    -0.445336
     -28.8779,     0.463532
     -28.5050,     0.801730
     -28.1320,     0.479792
     -27.7590,    -0.106885
     -27.3860,    -0.432466
     -27.0130,    -0.283798
     -26.6400,    0.0891059
     -26.2670,     0.210391
     -25.8940,    -0.233781
     -25.5210,     -1.19142
     -25.1480,     -2.35609
     -24.7750,     -3.41634
     -24.4020,     -4.17972
     -24.0290,     -4.52815
     -23.6560,     -4.37987
     -23.2830,     -3.76154
     -22.9100,     -2.87420
     -22.5371,     -2.01974
     -22.1641,     -1.44602
     -21.7911,     -1.24885
     -21.4181,     -1.36285
     -21.0451,     -1.60502
     -20.6721,     -1.75309
     -20.2991,     -1.64025
     -19.9261,     -1.23778
     -19.5531,    -0.687245
     -19.1801,    -0.235156
     -18.8071,   -0.0934120
     -18.4341,    -0.333245
     -18.0611,    -0.856521
     -17.6881,     -1.39964
     -17.3151,     -1.59357
     -16.9421,     -1.14341
     -16.5691,   -0.0504349
     -16.1962,      1.30251
     -15.8232,      2.30639
     -15.4502,      2.46670
     -15.0772,      1.70949
     -14.7042,     0.405699
     -14.3312,    -0.902401
     -13.9582,     -1.82206
     -13.5852,     -2.23971
     -13.2122,     -2.25458
     -12.8392,     -2.05708
     -12.4662,     -1.83114
     -12.0932,     -1.68445
     -11.7202,     -1.64364
     -11.3472,     -1.71124
     -10.9742,     -1.85517
     -10.6012,     -1.90422
     -10.2282,     -1.56269
     -9.85525,    -0.655435
     -9.48226,     0.630745
     -9.10927,      1.77777
     -8.73627,      2.22223
     -8.36328,      1.70223
     -7.99028,     0.459263
     -7.61729,    -0.878714
     -7.24430,     -1.70503
     -6.87130,     -1.79590
     -6.49831,     -1.31129
     -6.12531,    -0.542262
     -5.75232,     0.249557
     -5.37933,     0.822886
     -5.00633,     0.982625
     -4.63334,     0.698463
     -4.26034,     0.135208
     -3.88735,    -0.489719
     -3.51436,     -1.06308
     -3.14136,     -1.57489
     -2.76837,     -2.00107
     -2.39537,     -2.24778
     -2.02238,     -2.20931
     -1.64939,     -1.82916
     -1.27639,     -1.12341
    -0.903397,    -0.222166
    -0.530403,     0.613745
    -0.157409,      1.09534
     0.215585,      1.07308
     0.588579,     0.632411
     0.961573,    0.0589924
      1.33457,    -0.314547
      1.70756,    -0.314206
      2.08055,   -0.0403138
      2.45355,     0.215412
      2.82654,     0.198337
      3.19954,    -0.107736
      3.57253,    -0.466150
      3.94553,    -0.583007
      4.31852,    -0.338903
      4.69151,     0.159050
      5.06451,     0.697117
      5.43750,      1.06117
      5.81050,      1.08353
      6.18349,     0.730357
      6.55648,     0.166147
      6.92948,    -0.376024
      7.30247,    -0.818715
      7.67547,     -1.26954
      8.04846,     -1.83505
      8.42145,     -2.47139
      8.79445,     -3.00899
      9.16744,     -3.26862
      9.54044,     -3.15089
      9.91343,     -2.65901
      10.2864,     -1.89421
      10.6594,     -1.06873
      11.0324,    -0.478066
      11.4054,    -0.341550
      11.7784,    -0.606756
      12.1514,    -0.953331
      12.5244,     -1.04415
      12.8974,    -0.774668
      13.2704,    -0.273038
      13.6434,     0.296040
      14.0164,     0.864981
      14.3894,      1.40946
      14.7624,      1.83926
      15.1353,      2.00582
      15.5083,      1.82332
      15.8813,      1.35688
      16.2543,     0.779997
      16.6273,     0.264665
      17.0003,   -0.0832101
      17.3733,    -0.232935
      17.7463,    -0.216385
      18.1193,   -0.0827623
      18.4923,     0.158981
      18.8653,     0.535911
      19.2383,      1.04442
      19.6113,      1.61035
      19.9843,      2.12636
      20.3573,      2.52737
      20.7303,      2.82858
      21.1033,      3.08443
      21.4762,      3.31577
      21.8492,      3.50420
      22.2222,      3.65646
      22.5952,      3.81831
      22.9682,      3.99454
      23.3412,      4.10745
      23.7142,      4.08629
      24.0872,      3.97170
      24.4602,      3.88560
      24.8332,      3.90809
      25.2062,      4.02050
      25.5792,      4.16590
      25.9522,      4.31967
      26.3252,      4.47532
      26.6982,      4.60061
      27.0712,      4.65075
      27.4441,      4.59333
      27.8171,      4.38890
      28.1901,      4.00721
      28.5631,      3.52313
      28.9361,      3.15201
      29.3091,      3.11997
      29.6821,      3.49688
      30.0551,      4.17164
      30.4281,      4.95760
      30.8011,      5.68761
      31.1741,      6.24916
      31.5471,      6.61652
      31.9201,      6.88967
      32.2931,      7.26439
      32.6661,      7.88451
      33.0391,      8.65618
      33.4121,      9.22177
      33.7850,      9.21578
      34.1580,      8.61243
      34.5310,      7.78223
      34.9040,      7.16759
      35.2770,      6.95183
      35.6500,      7.07679
      36.0230,      7.49385
      36.3960,      8.28518
      36.7690,      9.52171
      37.1420,      11.0453
      37.5150,      12.4483
      37.8880,      13.3392
      38.2610,      13.6551
      38.6340,      13.6788
      39.0070,      13.7378
      39.3800,      13.9352
      39.7530,      14.1752
      40.1259,      14.3622
      40.4989,      14.5092
      40.8719,      14.6858
      41.2449,      14.9342
      41.6179,      15.2620
      41.9909,      15.7070
      42.3639,      16.3674
      42.7369,      17.3155
      43.1099,      18.4527
      43.4829,      19.4839
      43.8559,      20.1012
      44.2289,      20.2634
      44.6019,      20.3003
      44.9749,      20.6571
      45.3479,      21.4685
      45.7209,      22.4454
      46.0938,      23.2450
      46.4668,      23.8873
      46.8398,      24.7391
      47.2128,      26.1650
      47.5858,      28.2824
      47.9588,      30.9831
      48.3318,      34.0664
      48.7048,      37.3358
      49.0778,      40.6367
      49.4508,      43.8528
      49.8238,      46.8864
      50.1968,      49.6644
      50.5698,      52.1951
      50.9428,      54.6286
      51.3158,      57.2353
      51.6888,      60.2881
      52.0618,      63.9218
      52.4347,      68.0525
      52.8077,      72.3963
      53.1807,      76.5796
      53.5537,      80.2830
      53.9267,      83.3587
      54.2997,      85.8851
      54.6727,      88.0965
      55.0457,      90.1681
      55.4187,      92.0148
      55.7917,      93.3358
      56.1647,      93.8924
      56.5377,      93.7453
      56.9107,      93.2203
      57.2837,      92.6585
      57.6567,      92.1805
      58.0297,      91.6274
      58.4027,      90.6659
      58.7756,      88.9644
      59.1486,      86.3484
      59.5216,      82.8506
      59.8946,      78.6327
      60.2676,      73.8851
      60.6406,      68.8327
      61.0136,      63.7925
      61.3866,      59.1088
      61.7596,      54.9543
      62.1326,      51.1949
      62.5056,      47.4871
      62.8786,      43.5532
      63.2516,      39.4216
      63.6246,      35.4224
      63.9976,      31.9086
      64.3706,      28.9384
      64.7436,      26.2414
      65.1165,      23.5250
      65.4895,      20.8041
      65.8625,      18.4029
      66.2355,      16.6255
      66.6085,      15.4278
      66.9815,      14.4274
      67.3545,      13.2452
