# Freq.: 9.1830000e+09Hz; t_int: 166.53942h; (l,b) = (34.325009, 0.21142988)
     -197.509,      0.00000
     -197.136,      0.00000
     -196.763,      0.00000
     -196.390,      0.00000
     -196.017,      0.00000
     -195.644,      0.00000
     -195.271,      0.00000
     -194.898,      0.00000
     -194.525,      0.00000
     -194.152,      0.00000
     -193.779,      0.00000
     -193.406,     0.250632
     -193.033,     0.187754
     -192.660,    -0.165055
     -192.287,    -0.575767
     -191.914,    -0.772987
     -191.541,    -0.621212
     -191.168,    -0.150598
     -190.796,     0.567201
     -190.423,      1.46737
     -190.050,      2.37289
     -189.677,      2.92565
     -189.304,      2.77522
     -188.931,      1.89052
     -188.558,     0.638795
     -188.185,    -0.523298
     -187.812,     -1.45976
     -187.439,     -2.40137
     -187.066,     -3.54191
     -186.693,     -4.64824
     -186.320,     -5.15381
     -185.947,     -4.61824
     -185.574,     -3.06007
     -185.201,    -0.947167
     -184.828,      1.01830
     -184.455,      2.19804
     -184.082,      2.30836
     -183.709,      1.51938
     -183.336,     0.284239
     -182.963,    -0.932446
     -182.590,     -1.83455
     -182.217,     -2.34781
     -181.844,     -2.56831
     -181.471,     -2.62331
     -181.098,     -2.54358
     -180.725,     -2.27477
     -180.352,     -1.79658
     -179.979,     -1.18130
     -179.606,    -0.525482
     -179.233,     0.109615
     -178.861,     0.609858
     -178.488,     0.695007
     -178.115,    0.0717521
     -177.742,     -1.17258
     -177.369,     -2.43444
     -176.996,     -3.03646
     -176.623,     -2.81482
     -176.250,     -2.18507
     -175.877,     -1.67784
     -175.504,     -1.50463
     -175.131,     -1.51465
     -174.758,     -1.45015
     -174.385,     -1.23979
     -174.012,     -1.08964
     -173.639,     -1.25522
     -173.266,     -1.69560
     -172.893,     -2.02152
     -172.520,     -1.84479
     -172.147,     -1.13679
     -171.774,    -0.224041
     -171.401,     0.481981
     -171.028,     0.720280
     -170.655,     0.479860
     -170.282,   0.00541561
     -169.909,    -0.298134
     -169.536,   -0.0809717
     -169.163,     0.701288
     -168.790,      1.68309
     -168.417,      2.25997
     -168.044,      1.96233
     -167.671,     0.787854
     -167.299,    -0.744764
     -166.926,     -1.90283
     -166.553,     -2.23562
     -166.180,     -1.87862
     -165.807,     -1.39927
     -165.434,     -1.32996
     -165.061,     -1.79464
     -164.688,     -2.48391
     -164.315,     -2.92803
     -163.942,     -2.84353
     -163.569,     -2.30431
     -163.196,     -1.62332
     -162.823,     -1.08222
     -162.450,    -0.740577
     -162.077,    -0.411295
     -161.704,     0.218312
     -161.331,      1.34809
     -160.958,      2.84388
     -160.585,      4.25854
     -160.212,      5.12808
     -159.839,      5.29036
     -159.466,      4.96643
     -159.093,      4.56943
     -158.720,      4.38619
     -158.347,      4.34892
     -157.974,      4.10012
     -157.601,      3.36138
     -157.228,      2.28309
     -156.855,      1.37383
     -156.482,      1.05446
     -156.109,      1.33766
     -155.737,      1.92982
     -155.364,      2.51836
     -154.991,      2.91347
     -154.618,      3.01979
     -154.245,      2.78353
     -153.872,      2.18670
     -153.499,      1.29836
     -153.126,     0.379850
     -152.753,   -0.0880097
     -152.380,     0.356218
     -152.007,      1.76242
     -151.634,      3.63306
     -151.261,      5.21275
     -150.888,      5.89770
     -150.515,      5.44126
     -150.142,      3.99354
     -149.769,      2.10070
     -149.396,     0.535644
     -149.023,    -0.139488
     -148.650,    0.0576849
     -148.277,     0.653439
     -147.904,      1.19920
     -147.531,      1.57057
     -147.158,      1.86024
     -146.785,      2.13651
     -146.412,      2.36216
     -146.039,      2.46839
     -145.666,      2.43381
     -145.293,      2.30666
     -144.920,      2.17932
     -144.547,      2.10563
     -144.175,      2.00857
     -143.802,      1.73105
     -143.429,      1.26823
     -143.056,     0.922322
     -142.683,      1.09216
     -142.310,      1.83641
     -141.937,      2.71191
     -141.564,      3.12522
     -141.191,      2.83298
     -140.818,      2.07868
     -140.445,      1.30483
     -140.072,     0.808706
     -139.699,     0.652605
     -139.326,     0.775131
     -138.953,      1.06074
     -138.580,      1.31702
     -138.207,      1.33380
     -137.834,      1.06572
     -137.461,     0.722428
     -137.088,     0.619167
     -136.715,     0.927997
     -136.342,      1.55154
     -135.969,      2.16888
     -135.596,      2.38862
     -135.223,      1.95803
     -134.850,     0.924832
     -134.477,    -0.388299
     -134.104,     -1.56758
     -133.731,     -2.26404
     -133.358,     -2.25281
     -132.985,     -1.50302
     -132.613,    -0.281133
     -132.240,     0.886982
     -131.867,      1.50261
     -131.494,      1.43965
     -131.121,      1.01862
     -130.748,     0.685212
     -130.375,     0.553019
     -130.002,     0.277586
     -129.629,    -0.545854
     -129.256,     -1.86809
     -128.883,     -3.15964
     -128.510,     -3.90145
     -128.137,     -4.00051
     -127.764,     -3.72365
     -127.391,     -3.39454
     -127.018,     -3.26086
     -126.645,     -3.52518
     -126.272,     -4.27184
     -125.899,     -5.26968
     -125.526,     -5.96592
     -125.153,     -5.83784
     -124.780,     -4.77847
     -124.407,     -3.12093
     -124.034,     -1.35477
     -123.661,     0.152564
     -123.288,      1.25620
     -122.915,      1.94380
     -122.542,      2.15482
     -122.169,      1.72843
     -121.796,     0.613299
     -121.423,    -0.871785
     -121.050,     -2.11565
     -120.678,     -2.64170
     -120.305,     -2.41091
     -119.932,     -1.71017
     -119.559,    -0.873022
     -119.186,    -0.129613
     -118.813,     0.419463
     -118.440,     0.790832
     -118.067,      1.06122
     -117.694,      1.25574
     -117.321,      1.26390
     -116.948,     0.912860
     -116.575,     0.172132
     -116.202,    -0.752731
     -115.829,     -1.57524
     -115.456,     -2.14114
     -115.083,     -2.47052
     -114.710,     -2.66173
     -114.337,     -2.79822
     -113.964,     -2.90267
     -113.591,     -2.94660
     -113.218,     -2.90834
     -112.845,     -2.78920
     -112.472,     -2.53683
     -112.099,     -2.00651
     -111.726,     -1.10315
     -111.353,   -0.0117176
     -110.980,     0.751822
     -110.607,     0.617237
     -110.234,    -0.606554
     -109.861,     -2.50435
     -109.488,     -4.24408
     -109.116,     -5.05940
     -108.743,     -4.69801
     -108.370,     -3.52052
     -107.997,     -2.15755
     -107.624,     -1.01355
     -107.251,   -0.0794535
     -106.878,     0.804290
     -106.505,      1.55497
     -106.132,      1.75449
     -105.759,     0.996179
     -105.386,    -0.648362
     -105.013,     -2.56432
     -104.640,     -4.03564
     -104.267,     -4.70988
     -103.894,     -4.65529
     -103.521,     -4.12584
     -103.148,     -3.35699
     -102.775,     -2.48919
     -102.402,     -1.57491
     -102.029,    -0.659039
     -101.656,     0.115302
     -101.283,     0.506791
     -100.910,     0.340614
     -100.537,    -0.315153
     -100.164,     -1.18687
     -99.7913,     -2.02590
     -99.4184,     -2.74324
     -99.0454,     -3.28884
     -98.6724,     -3.47919
     -98.2995,     -3.05589
     -97.9265,     -1.95725
     -97.5535,    -0.482580
     -97.1805,     0.883764
     -96.8076,      1.79666
     -96.4346,      2.16221
     -96.0616,      2.03984
     -95.6887,      1.60030
     -95.3157,      1.14917
     -94.9427,      1.03009
     -94.5698,      1.44600
     -94.1968,      2.38497
     -93.8238,      3.66990
     -93.4509,      5.02797
     -93.0779,      6.14838
     -92.7049,      6.76450
     -92.3320,      6.75584
     -91.9590,      6.19162
     -91.5860,      5.26572
     -91.2131,      4.19070
     -90.8401,      3.13129
     -90.4671,      2.16391
     -90.0942,      1.27521
     -89.7212,     0.466167
     -89.3482,    -0.129605
     -88.9753,    -0.316025
     -88.6023,   -0.0458186
     -88.2293,     0.502800
     -87.8564,      1.05307
     -87.4834,      1.36319
     -87.1104,      1.27267
     -86.7374,     0.754505
     -86.3645,   -0.0209228
     -85.9915,    -0.747164
     -85.6185,     -1.19537
     -85.2456,     -1.37845
     -84.8726,     -1.45964
     -84.4996,     -1.49258
     -84.1267,     -1.31137
     -83.7537,    -0.708841
     -83.3807,     0.309689
     -83.0078,      1.46232
     -82.6348,      2.36755
     -82.2618,      2.81282
     -81.8889,      2.86255
     -81.5159,      2.66982
     -81.1429,      2.21791
     -80.7700,      1.36657
     -80.3970,     0.178974
     -80.0240,    -0.931249
     -79.6511,     -1.50035
     -79.2781,     -1.44264
     -78.9051,     -1.12532
     -78.5322,     -1.05247
     -78.1592,     -1.52208
     -77.7862,     -2.51816
     -77.4133,     -3.77997
     -77.0403,     -4.90468
     -76.6673,     -5.46679
     -76.2943,     -5.18211
     -75.9214,     -4.07126
     -75.5484,     -2.52754
     -75.1754,     -1.18617
     -74.8025,    -0.577434
     -74.4295,    -0.785322
     -74.0565,     -1.43434
     -73.6836,     -2.01776
     -73.3106,     -2.21193
     -72.9376,     -1.91153
     -72.5647,     -1.13588
     -72.1917,   -0.0781403
     -71.8187,     0.801381
     -71.4458,     0.995270
     -71.0728,     0.445683
     -70.6998,    -0.258639
     -70.3269,    -0.334085
     -69.9539,     0.538504
     -69.5809,      2.02404
     -69.2080,      3.48453
     -68.8350,      4.40638
     -68.4620,      4.56890
     -68.0891,      3.99000
     -67.7161,      2.81621
     -67.3431,      1.26944
     -66.9702,    -0.342242
     -66.5972,     -1.64532
     -66.2242,     -2.32515
     -65.8512,     -2.27680
     -65.4783,     -1.63730
     -65.1053,    -0.659462
     -64.7323,     0.457910
     -64.3594,      1.62182
     -63.9864,      2.72581
     -63.6134,      3.49702
     -63.2405,      3.54915
     -62.8675,      2.70806
     -62.4945,      1.31098
     -62.1216,    0.0917875
     -61.7486,    -0.313109
     -61.3756,     0.217982
     -61.0027,      1.29432
     -60.6297,      2.36501
     -60.2567,      3.11638
     -59.8838,      3.62859
     -59.5108,      4.18565
     -59.1378,      4.90568
     -58.7649,      5.54087
     -58.3919,      5.64989
     -58.0189,      4.95670
     -57.6460,      3.54435
     -57.2730,      1.77868
     -56.9000,     0.102425
     -56.5271,     -1.17597
     -56.1541,     -1.99364
     -55.7811,     -2.43459
     -55.4081,     -2.52310
     -55.0352,     -2.18898
     -54.6622,     -1.44088
     -54.2892,    -0.462055
     -53.9163,     0.517857
     -53.5433,      1.37637
     -53.1703,      2.10276
     -52.7974,      2.71994
     -52.4244,      3.19870
     -52.0514,      3.37628
     -51.6785,      2.98746
     -51.3055,      1.88140
     -50.9325,     0.238904
     -50.5596,     -1.47107
     -50.1866,     -2.78449
     -49.8136,     -3.49984
     -49.4407,     -3.67640
     -49.0677,     -3.45011
     -48.6947,     -2.90365
     -48.3218,     -2.10601
     -47.9488,     -1.22854
     -47.5758,    -0.540489
     -47.2029,    -0.201903
     -46.8299,   -0.0594347
     -46.4569,     0.254215
     -46.0839,     0.945276
     -45.7110,      1.81404
     -45.3380,      2.43747
     -44.9650,      2.55740
     -44.5921,      2.20737
     -44.2191,      1.51433
     -43.8461,     0.560181
     -43.4732,    -0.512862
     -43.1002,     -1.42824
     -42.7272,     -1.93507
     -42.3543,     -1.99749
     -41.9813,     -1.76940
     -41.6083,     -1.41820
     -41.2354,     -1.00638
     -40.8624,    -0.517014
     -40.4894,    0.0348727
     -40.1165,     0.512348
     -39.7435,     0.683867
     -39.3705,     0.381067
     -38.9976,    -0.331054
     -38.6246,     -1.13577
     -38.2516,     -1.64981
     -37.8787,     -1.68904
     -37.5057,     -1.41272
     -37.1327,     -1.23616
     -36.7598,     -1.57759
     -36.3868,     -2.60157
     -36.0138,     -4.09829
     -35.6408,     -5.56962
     -35.2679,     -6.48858
     -34.8949,     -6.57045
     -34.5219,     -5.86543
     -34.1490,     -4.63397
     -33.7760,     -3.15969
     -33.4030,     -1.66609
     -33.0301,    -0.326786
     -32.6571,     0.745488
     -32.2841,      1.54835
     -31.9112,      2.17351
     -31.5382,      2.67574
     -31.1652,      2.95886
     -30.7923,      2.84938
     -30.4193,      2.30517
     -30.0463,      1.51606
     -29.6734,     0.776152
     -29.3004,     0.266195
     -28.9274,   -0.0410144
     -28.5545,    -0.298223
     -28.1815,    -0.639624
     -27.8085,     -1.07871
     -27.4356,     -1.48406
     -27.0626,     -1.67591
     -26.6896,     -1.60842
     -26.3166,     -1.44236
     -25.9437,     -1.38366
     -25.5707,     -1.45924
     -25.1977,     -1.49199
     -24.8248,     -1.28007
     -24.4518,    -0.757829
     -24.0788,  -0.00882854
     -23.7059,     0.783279
     -23.3329,      1.35372
     -22.9599,      1.40884
     -22.5870,     0.796049
     -22.2140,    -0.296399
     -21.8410,     -1.32642
     -21.4681,     -1.68378
     -21.0951,     -1.10173
     -20.7221,     0.157251
     -20.3492,      1.49300
     -19.9762,      2.31856
     -19.6032,      2.31314
     -19.2303,      1.53843
     -18.8573,     0.400077
     -18.4843,    -0.621369
     -18.1114,     -1.31958
     -17.7384,     -1.83424
     -17.3654,     -2.35184
     -16.9925,     -2.77927
     -16.6195,     -2.75905
     -16.2465,     -2.01443
     -15.8735,    -0.668282
     -15.5006,     0.794773
     -15.1276,      1.87276
     -14.7546,      2.32861
     -14.3817,      2.19407
     -14.0087,      1.63979
     -13.6357,     0.892518
     -13.2628,     0.176494
     -12.8898,    -0.361953
     -12.5168,    -0.657180
     -12.1439,    -0.628096
     -11.7709,    -0.170345
     -11.3979,     0.638406
     -11.0250,      1.36323
     -10.6520,      1.39861
     -10.2790,     0.433016
     -9.90606,     -1.24821
     -9.53309,     -2.91987
     -9.16012,     -3.91004
     -8.78716,     -4.00324
     -8.41419,     -3.41305
     -8.04122,     -2.43544
     -7.66825,     -1.23273
     -7.29528,    0.0418808
     -6.92232,      1.07699
     -6.54935,      1.52603
     -6.17638,      1.28565
     -5.80341,     0.548378
     -5.43044,    -0.423783
     -5.05748,     -1.47886
     -4.68451,     -2.49657
     -4.31154,     -3.23554
     -3.93857,     -3.39253
     -3.56560,     -2.86356
     -3.19264,     -1.91064
     -2.81967,     -1.03012
     -2.44670,    -0.650824
     -2.07373,    -0.922487
     -1.70077,     -1.68347
     -1.32780,     -2.53856
    -0.954829,     -3.00956
    -0.581861,     -2.76975
    -0.208893,     -1.87135
     0.164075,    -0.750576
     0.537042,    0.0830159
     0.910010,     0.434282
      1.28298,     0.529467
      1.65595,     0.781229
      2.02891,      1.47503
      2.40188,      2.58856
      2.77485,      3.75742
      3.14782,      4.41299
      3.52079,      4.12330
      3.89375,      2.93469
      4.26672,      1.40671
      4.63969,     0.303709
      5.01266,     0.186080
      5.38563,      1.12681
      5.75859,      2.65872
      6.13156,      4.00777
      6.50453,      4.53521
      6.87750,      4.08936
      7.25046,      2.98147
      7.62343,      1.65019
      7.99640,     0.377194
      8.36937,    -0.707251
      8.74234,     -1.48205
      9.11530,     -1.83966
      9.48827,     -1.79565
      9.86124,     -1.44582
      10.2342,    -0.819844
      10.6072,    0.0837688
      10.9801,      1.14746
      11.3531,      2.19618
      11.7261,      3.18343
      12.0990,      4.09912
      12.4720,      4.67871
      12.8450,      4.45170
      13.2180,      3.20929
      13.5909,      1.29741
      13.9639,    -0.651734
      14.3369,     -2.18383
      14.7098,     -3.14876
      15.0828,     -3.49832
      15.4558,     -3.15217
      15.8287,     -2.11984
      16.2017,    -0.678969
      16.5747,     0.671959
      16.9476,      1.50946
      17.3206,      1.75303
      17.6936,      1.63248
      18.0665,      1.41559
      18.4395,      1.22414
      18.8125,      1.10210
      19.1854,      1.12782
      19.5584,      1.35508
      19.9314,      1.70242
      20.3043,      1.99237
      20.6773,      2.09013
      21.0503,      1.98066
      21.4232,      1.75537
      21.7962,      1.55056
      22.1692,      1.44196
      22.5422,      1.36035
      22.9151,      1.16446
      23.2881,     0.820127
      23.6611,     0.422703
      24.0340,    0.0158916
      24.4070,    -0.484155
      24.7800,     -1.09209
      25.1529,     -1.57068
      25.5259,     -1.57788
      25.8989,    -0.999852
      26.2718,   -0.0587181
      26.6448,     0.916313
      27.0178,      1.72976
      27.3907,      2.29517
      27.7637,      2.50509
      28.1367,      2.27235
      28.5096,      1.65054
      28.8826,     0.791057
      29.2556,    -0.171771
      29.6285,     -1.07447
      30.0015,     -1.63871
      30.3745,     -1.63428
      30.7474,     -1.16130
      31.1204,    -0.614595
      31.4934,    -0.288652
      31.8663,   -0.0870117
      32.2393,     0.338840
      32.6123,      1.19012
      32.9853,      2.24546
      33.3582,      2.97044
      33.7312,      2.95660
      34.1042,      2.27860
      34.4771,      1.39183
      34.8501,     0.726705
      35.2231,     0.458365
      35.5960,     0.577204
      35.9690,     0.993152
      36.3420,      1.55793
      36.7149,      2.12214
      37.0879,      2.61502
      37.4609,      3.03373
      37.8338,      3.39004
      38.2068,      3.71651
      38.5798,      4.08427
      38.9527,      4.53820
      39.3257,      4.98630
      39.6987,      5.18132
      40.0716,      4.87602
      40.4446,      4.06034
      40.8176,      3.04821
      41.1905,      2.26810
      41.5635,      1.93605
      41.9365,      1.95947
      42.3094,      2.12979
      42.6824,      2.31361
      43.0554,      2.46088
      43.4284,      2.55778
      43.8013,      2.65634
      44.1743,      2.90103
      44.5473,      3.42327
      44.9202,      4.17241
      45.2932,      4.91582
      45.6662,      5.46086
      46.0391,      5.82228
      46.4121,      6.11222
      46.7851,      6.33404
      47.1580,      6.41228
      47.5310,      6.46258
      47.9040,      6.93902
      48.2769,      8.35712
      48.6499,      10.7435
      49.0229,      13.3586
      49.3958,      15.0932
      49.7688,      15.2660
      50.1418,      14.0923
      50.5147,      12.4543
      50.8877,      11.3042
      51.2607,      11.2185
      51.6336,      12.2984
      52.0066,      14.2862
      52.3796,      16.7119
      52.7526,      19.0180
      53.1255,      20.7171
      53.4985,      21.5770
      53.8715,      21.7286
      54.2444,      21.6339
      54.6174,      21.9249
      54.9904,      23.1457
      55.3633,      25.4893
      55.7363,      28.6578
      56.1093,      31.9223
      56.4822,      34.4120
      56.8552,      35.5707
      57.2282,      35.4949
      57.6011,      34.8278
      57.9741,      34.2848
      58.3471,      34.2571
      58.7200,      34.7469
      59.0930,      35.4969
      59.4660,      36.1743
      59.8389,      36.6005
      60.2119,      36.8938
      60.5849,      37.3293
      60.9578,      38.0290
      61.3308,      38.8434
      61.7038,      39.5576
      62.0767,      40.1604
      62.4497,      40.8416
      62.8227,      41.7337
      63.1957,      42.7656
      63.5686,      43.8428
      63.9416,      45.0753
      64.3146,      46.6462
      64.6875,      48.4247
      65.0605,      49.8355
      65.4335,      50.1839
      65.8064,      49.0881
      66.1794,      46.6614
      66.5524,      43.4195
      66.9253,      40.0214
      67.2983,      36.9630
