# Freq.: 9.1830000e+09Hz; t_int: 166.47129h; (l,b) = (19.662299, -0.30454612)
     -197.615,      0.00000
     -197.242,      0.00000
     -196.869,      0.00000
     -196.496,      0.00000
     -196.123,      0.00000
     -195.750,      0.00000
     -195.377,      0.00000
     -195.004,      0.00000
     -194.631,      0.00000
     -194.258,      0.00000
     -193.885,      0.00000
     -193.512,    0.0144249
     -193.139,    -0.596917
     -192.766,     -1.48821
     -192.393,     -2.46079
     -192.020,     -3.27792
     -191.648,     -3.63405
     -191.275,     -3.23402
     -190.902,     -2.00669
     -190.529,    -0.241986
     -190.156,      1.54436
     -189.783,      2.95249
     -189.410,      3.92993
     -189.037,      4.62220
     -188.664,      4.99715
     -188.291,      4.74442
     -187.918,      3.65161
     -187.545,      2.00506
     -187.172,     0.474644
     -186.799,    -0.416081
     -186.426,    -0.653778
     -186.053,    -0.635145
     -185.680,    -0.813534
     -185.307,     -1.37749
     -184.934,     -2.09932
     -184.561,     -2.49251
     -184.188,     -2.28121
     -183.815,     -1.76909
     -183.442,     -1.62877
     -183.069,     -2.24398
     -182.696,     -3.28614
     -182.323,     -3.97971
     -181.950,     -3.79107
     -181.577,     -2.86143
     -181.204,     -1.80422
     -180.831,     -1.14704
     -180.458,    -0.985508
     -180.085,     -1.08532
     -179.712,     -1.19194
     -179.339,     -1.20459
     -178.966,     -1.13569
     -178.593,     -1.00612
     -178.220,    -0.796310
     -177.847,    -0.467062
     -177.474,   -0.0244699
     -177.101,     0.434538
     -176.728,     0.759259
     -176.355,     0.835192
     -175.982,     0.645143
     -175.609,     0.275680
     -175.236,    -0.105808
     -174.863,    -0.289684
     -174.490,   -0.0977198
     -174.117,     0.497691
     -173.744,      1.29350
     -173.371,      1.95590
     -172.998,      2.27553
     -172.625,      2.31829
     -172.252,      2.28611
     -171.879,      2.26174
     -171.506,      2.14911
     -171.133,      1.83793
     -170.760,      1.35309
     -170.387,     0.828346
     -170.014,     0.378878
     -169.641,    0.0339010
     -169.268,    -0.212670
     -168.895,    -0.309866
     -168.522,    -0.133771
     -168.149,     0.412901
     -167.776,      1.29220
     -167.403,      2.34075
     -167.030,      3.35432
     -166.657,      4.12795
     -166.284,      4.47659
     -165.911,      4.30885
     -165.538,      3.68598
     -165.165,      2.77223
     -164.792,      1.72742
     -164.419,     0.661649
     -164.046,    -0.311581
     -163.673,     -1.01700
     -163.300,     -1.29266
     -162.927,     -1.17094
     -162.554,    -0.920391
     -162.181,    -0.834996
     -161.808,     -1.01938
     -161.435,     -1.39832
     -161.062,     -1.81620
     -160.689,     -2.05260
     -160.316,     -1.85831
     -159.943,     -1.11393
     -159.570,    0.0299721
     -159.197,      1.19026
     -158.824,      1.96196
     -158.451,      2.18126
     -158.078,      2.03157
     -157.705,      1.84693
     -157.332,      1.77973
     -156.959,      1.69044
     -156.586,      1.37161
     -156.213,     0.822404
     -155.840,     0.246468
     -155.467,    -0.176922
     -155.094,    -0.419343
     -154.721,    -0.510206
     -154.349,    -0.439207
     -153.976,    -0.211281
     -153.603,    0.0723718
     -153.230,     0.275884
     -152.857,     0.365057
     -152.484,     0.425149
     -152.111,     0.546853
     -151.738,     0.731390
     -151.365,     0.889898
     -150.992,     0.926625
     -150.619,     0.860227
     -150.246,     0.825777
     -149.873,     0.876843
     -149.500,     0.850589
     -149.127,     0.568455
     -148.754,     0.140302
     -148.381,   -0.0921570
     -148.008,    0.0417201
     -147.635,     0.301009
     -147.262,     0.255817
     -146.889,    -0.296204
     -146.516,     -1.13169
     -146.143,     -1.73191
     -145.770,     -1.63749
     -145.397,    -0.841556
     -145.024,     0.104216
     -144.651,     0.476834
     -144.278,   -0.0436729
     -143.905,     -1.16759
     -143.532,     -2.29461
     -143.159,     -2.95364
     -142.786,     -2.99895
     -142.413,     -2.50808
     -142.040,     -1.61538
     -141.667,    -0.487622
     -141.294,     0.637071
     -140.921,      1.53795
     -140.548,      2.17126
     -140.175,      2.66699
     -139.802,      3.13647
     -139.429,      3.50864
     -139.056,      3.53506
     -138.683,      2.92401
     -138.310,      1.55496
     -137.937,    -0.294688
     -137.564,     -1.93198
     -137.191,     -2.62348
     -136.818,     -2.13549
     -136.445,    -0.914420
     -136.072,     0.283227
     -135.699,     0.907491
     -135.326,     0.829599
     -134.953,     0.248755
     -134.580,    -0.516783
     -134.207,     -1.25797
     -133.834,     -1.99099
     -133.461,     -2.83064
     -133.088,     -3.76279
     -132.715,     -4.58855
     -132.342,     -5.06803
     -131.969,     -5.06956
     -131.596,     -4.59036
     -131.223,     -3.69060
     -130.850,     -2.46184
     -130.477,     -1.06096
     -130.104,     0.268426
     -129.731,      1.23193
     -129.358,      1.57934
     -128.985,      1.26075
     -128.612,     0.535074
     -128.239,    -0.144242
     -127.866,    -0.425673
     -127.493,    -0.264416
     -127.120,     0.140962
     -126.747,     0.560854
     -126.374,     0.856762
     -126.001,     0.963763
     -125.628,     0.880849
     -125.255,     0.716081
     -124.882,     0.658923
     -124.509,     0.842621
     -124.136,      1.25267
     -123.763,      1.78038
     -123.390,      2.29059
     -123.017,      2.58781
     -122.644,      2.43339
     -122.271,      1.75297
     -121.898,     0.805702
     -121.525,    0.0371433
     -121.152,    -0.240999
     -120.779,  -0.00464814
     -120.406,     0.552796
     -120.033,      1.14367
     -119.660,      1.48601
     -119.287,      1.42625
     -118.914,      1.06428
     -118.541,     0.746626
     -118.168,     0.835795
     -117.795,      1.38262
     -117.423,      2.01441
     -117.050,      2.21274
     -116.677,      1.74888
     -116.304,     0.866102
     -115.931,    0.0656101
     -115.558,    -0.303220
     -115.185,    -0.317879
     -114.812,    -0.373400
     -114.439,    -0.769402
     -114.066,     -1.42281
     -113.693,     -1.99348
     -113.320,     -2.19907
     -112.947,     -1.95957
     -112.574,     -1.36793
     -112.201,    -0.666450
     -111.828,    -0.207598
     -111.455,    -0.288679
     -111.082,    -0.943589
     -110.709,     -1.88254
     -110.336,     -2.63644
     -109.963,     -2.79553
     -109.590,     -2.18632
     -109.217,    -0.916866
     -108.844,     0.667372
     -108.471,      2.09532
     -108.098,      2.98351
     -107.725,      3.24468
     -107.352,      3.05729
     -106.979,      2.60003
     -106.606,      1.88552
     -106.233,     0.899653
     -105.860,    -0.172243
     -105.487,    -0.961356
     -105.114,     -1.18959
     -104.741,    -0.926540
     -104.368,    -0.572447
     -103.995,    -0.547299
     -103.622,    -0.937825
     -103.249,     -1.44661
     -102.876,     -1.70376
     -102.503,     -1.58684
     -102.130,     -1.19654
     -101.757,    -0.572850
     -101.384,     0.454116
     -101.011,      2.05482
     -100.638,      4.05289
     -100.265,      5.87545
     -99.8920,      6.91164
     -99.5190,      6.89583
     -99.1460,      5.96464
     -98.7730,      4.49083
     -98.4000,      2.93403
     -98.0270,      1.71061
     -97.6540,      1.02566
     -97.2811,     0.764909
     -96.9081,     0.561897
     -96.5351,    0.0228893
     -96.1621,     -1.01507
     -95.7891,     -2.34915
     -95.4161,     -3.49630
     -95.0431,     -3.95791
     -94.6701,     -3.50614
     -94.2971,     -2.32038
     -93.9241,    -0.892492
     -93.5512,     0.229145
     -93.1782,     0.696166
     -92.8052,     0.492836
     -92.4322,   -0.0931516
     -92.0592,    -0.619275
     -91.6862,    -0.679875
     -91.3132,    -0.104223
     -90.9402,     0.902450
     -90.5672,      1.84149
     -90.1942,      2.25310
     -89.8213,      1.99483
     -89.4483,      1.22141
     -89.0753,     0.244091
     -88.7023,    -0.508192
     -88.3293,    -0.578765
     -87.9563,     0.221276
     -87.5833,      1.60032
     -87.2103,      2.99133
     -86.8373,      3.99234
     -86.4643,      4.58075
     -86.0914,      4.95298
     -85.7184,      5.23935
     -85.3454,      5.38814
     -84.9724,      5.27800
     -84.5994,      4.90235
     -84.2264,      4.45883
     -83.8534,      4.29382
     -83.4804,      4.71227
     -83.1074,      5.70232
     -82.7344,      6.78595
     -82.3615,      7.28348
     -81.9885,      6.89504
     -81.6155,      5.99162
     -81.2425,      5.23139
     -80.8695,      4.94809
     -80.4965,      5.00346
     -80.1235,      5.12099
     -79.7505,      5.17696
     -79.3775,      5.17244
     -79.0045,      5.08346
     -78.6316,      4.85089
     -78.2586,      4.49259
     -77.8856,      4.11917
     -77.5126,      3.77844
     -77.1396,      3.34554
     -76.7666,      2.65579
     -76.3936,      1.73400
     -76.0206,     0.814294
     -75.6476,     0.117247
     -75.2746,    -0.325269
     -74.9017,    -0.591382
     -74.5287,    -0.691098
     -74.1557,    -0.557713
     -73.7827,    -0.201823
     -73.4097,     0.213396
     -73.0367,     0.476619
     -72.6637,     0.470548
     -72.2907,     0.239467
     -71.9177,  -0.00707372
     -71.5447,   0.00484509
     -71.1718,     0.387004
     -70.7988,     0.947274
     -70.4258,      1.35872
     -70.0528,      1.49230
     -69.6798,      1.52504
     -69.3068,      1.70154
     -68.9338,      2.03639
     -68.5608,      2.27538
     -68.1878,      2.12139
     -67.8148,      1.49418
     -67.4419,     0.617616
     -67.0689,    -0.109819
     -66.6959,    -0.355918
     -66.3229,   -0.0523823
     -65.9499,     0.551735
     -65.5769,      1.02922
     -65.2039,      1.09251
     -64.8309,     0.873022
     -64.4579,     0.819389
     -64.0849,      1.23305
     -63.7120,      1.96954
     -63.3390,      2.66677
     -62.9660,      3.15810
     -62.5930,      3.53980
     -62.2200,      3.91541
     -61.8470,      4.22760
     -61.4740,      4.33422
     -61.1010,      4.12979
     -60.7280,      3.55631
     -60.3550,      2.59406
     -59.9821,      1.34632
     -59.6091,     0.116307
     -59.2361,    -0.703199
     -58.8631,    -0.885869
     -58.4901,    -0.533585
     -58.1171,   0.00969005
     -57.7441,     0.415204
     -57.3711,     0.580159
     -56.9981,     0.613766
     -56.6251,     0.618219
     -56.2522,     0.504848
     -55.8792,    0.0874442
     -55.5062,    -0.628213
     -55.1332,     -1.32877
     -54.7602,     -1.63538
     -54.3872,     -1.44373
     -54.0142,     -1.00492
     -53.6412,    -0.707205
     -53.2682,    -0.798930
     -52.8953,     -1.28173
     -52.5223,     -2.00637
     -52.1493,     -2.81180
     -51.7763,     -3.55589
     -51.4033,     -4.08525
     -51.0303,     -4.25579
     -50.6573,     -3.96568
     -50.2843,     -3.13950
     -49.9113,     -1.75430
     -49.5383,    0.0360713
     -49.1654,      1.83969
     -48.7924,      3.18501
     -48.4194,      3.78919
     -48.0464,      3.68897
     -47.6734,      3.14997
     -47.3004,      2.48082
     -46.9274,      1.88891
     -46.5544,      1.40200
     -46.1814,     0.872088
     -45.8084,     0.129167
     -45.4355,    -0.772223
     -45.0625,     -1.46145
     -44.6895,     -1.46894
     -44.3165,    -0.583271
     -43.9435,     0.981857
     -43.5705,      2.76274
     -43.1975,      4.37209
     -42.8245,      5.64400
     -42.4515,      6.51492
     -42.0785,      6.88455
     -41.7056,      6.65346
     -41.3326,      5.83409
     -40.9596,      4.55159
     -40.5866,      2.96179
     -40.2136,      1.24952
     -39.8406,    -0.280548
     -39.4676,     -1.22694
     -39.0946,     -1.36280
     -38.7216,    -0.933604
     -38.3486,    -0.583736
     -37.9757,    -0.858391
     -37.6027,     -1.74083
     -37.2297,     -2.69910
     -36.8567,     -3.17102
     -36.4837,     -2.97683
     -36.1107,     -2.31791
     -35.7377,     -1.51507
     -35.3647,    -0.811144
     -34.9917,    -0.295590
     -34.6187,     0.143232
     -34.2458,     0.752550
     -33.8728,      1.65682
     -33.4998,      2.65606
     -33.1268,      3.37015
     -32.7538,      3.58688
     -32.3808,      3.40923
     -32.0078,      3.08336
     -31.6348,      2.78213
     -31.2618,      2.58398
     -30.8888,      2.55029
     -30.5159,      2.69507
     -30.1429,      2.87927
     -29.7699,      2.82861
     -29.3969,      2.32329
     -29.0239,      1.39603
     -28.6509,     0.352961
     -28.2779,    -0.432219
     -27.9049,    -0.805288
     -27.5319,    -0.931803
     -27.1589,     -1.08952
     -26.7860,     -1.36923
     -26.4130,     -1.61048
     -26.0400,     -1.61132
     -25.6670,     -1.34640
     -25.2940,    -0.984311
     -24.9210,    -0.744280
     -24.5480,    -0.731928
     -24.1750,    -0.856583
     -23.8020,    -0.912906
     -23.4290,    -0.820121
     -23.0561,    -0.792776
     -22.6831,     -1.17454
     -22.3101,     -2.04234
     -21.9371,     -3.04576
     -21.5641,     -3.69601
     -21.1911,     -3.76485
     -20.8181,     -3.39658
     -20.4451,     -2.94914
     -20.0721,     -2.76770
     -19.6991,     -2.97224
     -19.3262,     -3.35785
     -18.9532,     -3.56676
     -18.5802,     -3.43100
     -18.2072,     -3.12108
     -17.8342,     -2.94602
     -17.4612,     -3.04225
     -17.0882,     -3.24797
     -16.7152,     -3.23153
     -16.3422,     -2.73562
     -15.9692,     -1.75056
     -15.5963,    -0.526606
     -15.2233,     0.565398
     -14.8503,      1.27060
     -14.4773,      1.61515
     -14.1043,      1.79705
     -13.7313,      1.89915
     -13.3583,      1.78888
     -12.9853,      1.31999
     -12.6123,     0.538070
     -12.2394,    -0.356182
     -11.8664,     -1.17075
     -11.4934,     -1.78955
     -11.1204,     -2.12830
     -10.7474,     -2.11959
     -10.3744,     -1.77873
     -10.0014,     -1.24354
     -9.62842,    -0.687526
     -9.25543,    -0.188087
     -8.88244,     0.254123
     -8.50945,     0.552107
     -8.13646,     0.514165
     -7.76347,    0.0836658
     -7.39048,    -0.495397
     -7.01749,    -0.880967
     -6.64450,    -0.983894
     -6.27151,     -1.03181
     -5.89852,     -1.27718
     -5.52553,     -1.71472
     -5.15254,     -2.14190
     -4.77955,     -2.46205
     -4.40656,     -2.82351
     -4.03357,     -3.40106
     -3.66058,     -4.12338
     -3.28759,     -4.74366
     -2.91460,     -5.14009
     -2.54161,     -5.37881
     -2.16862,     -5.45810
     -1.79563,     -5.16910
     -1.42264,     -4.32371
     -1.04965,     -3.04062
    -0.676662,     -1.71634
    -0.303672,    -0.744331
    0.0693175,    -0.280323
     0.442307,    -0.183935
     0.815297,    -0.112418
      1.18829,     0.257449
      1.56128,     0.982826
      1.93427,      1.78897
      2.30726,      2.25928
      2.68025,      2.11660
      3.05324,      1.38432
      3.42623,     0.366090
      3.79922,    -0.490602
      4.17221,    -0.807881
      4.54520,    -0.535622
      4.91819,   -0.0552923
      5.29118,    0.0688515
      5.66417,    -0.490080
      6.03716,     -1.62061
      6.41015,     -2.90483
      6.78314,     -3.92033
      7.15613,     -4.51158
      7.52912,     -4.82246
      7.90211,     -5.03311
      8.27510,     -5.09361
      8.64809,     -4.77256
      9.02108,     -3.91827
      9.39407,     -2.59749
      9.76706,     -1.02633
      10.1400,     0.509877
      10.5130,      1.65113
      10.8860,      2.03154
      11.2590,      1.50119
      11.6320,     0.266430
      12.0050,     -1.25853
      12.3780,     -2.73000
      12.7510,     -3.99810
      13.1240,     -5.03520
      13.4970,     -5.82749
      13.8699,     -6.34274
      14.2429,     -6.56368
      14.6159,     -6.50627
      14.9889,     -6.17281
      15.3619,     -5.51346
      15.7349,     -4.50319
      16.1079,     -3.26608
      16.4809,     -2.04748
      16.8539,     -1.01844
      17.2269,    -0.156323
      17.5998,     0.649755
      17.9728,      1.42712
      18.3458,      2.06635
      18.7188,      2.37683
      19.0918,      2.20528
      19.4648,      1.59332
      19.8378,     0.829256
      20.2108,     0.257593
      20.5838,  -0.00814086
      20.9568,    -0.151887
      21.3297,    -0.405309
      21.7027,    -0.762351
      22.0757,     -1.02256
      22.4487,     -1.11797
      22.8217,     -1.25130
      23.1947,     -1.63053
      23.5677,     -2.18896
      23.9407,     -2.65059
      24.3137,     -2.76312
      24.6867,     -2.39894
      25.0596,     -1.55993
      25.4326,    -0.441152
      25.8056,     0.529361
      26.1786,     0.887729
      26.5516,     0.509827
      26.9246,    -0.232493
      27.2976,    -0.794995
      27.6706,    -0.981434
      28.0436,     -1.10192
      28.4166,     -1.58084
      28.7895,     -2.43178
      29.1625,     -3.15412
      29.5355,     -3.11901
      29.9085,     -2.01289
      30.2815,    0.0251496
      30.6545,      2.55037
      31.0275,      5.05986
      31.4005,      7.19717
      31.7735,      8.81513
      32.1465,      9.91718
      32.5194,      10.6024
      32.8924,      11.0573
      33.2654,      11.5352
      33.6384,      12.3153
      34.0114,      13.6729
      34.3844,      15.8071
      34.7574,      18.6655
      35.1304,      21.8255
      35.5034,      24.6565
      35.8764,      26.6798
      36.2493,      27.8172
      36.6223,      28.3568
      36.9953,      28.6957
      37.3683,      29.0648
      37.7413,      29.4857
      38.1143,      29.9742
      38.4873,      30.6897
      38.8603,      31.8136
      39.2333,      33.3248
      39.6063,      34.9479
      39.9792,      36.3045
      40.3522,      37.1044
      40.7252,      37.2393
      41.0982,      36.7313
      41.4712,      35.6254
      41.8442,      34.0085
      42.2172,      32.1960
      42.5902,      30.8058
      42.9632,      30.4403
      43.3361,      31.1736
      43.7091,      32.3963
      44.0821,      33.2447
      44.4551,      33.2047
      44.8281,      32.3354
      45.2011,      31.0334
      45.5741,      29.6906
      45.9471,      28.5408
      46.3201,      27.6970
      46.6931,      27.2198
      47.0660,      27.1005
      47.4390,      27.1938
      47.8120,      27.2370
      48.1850,      26.9854
      48.5580,      26.3417
      48.9310,      25.4002
      49.3040,      24.4265
      49.6770,      23.7522
      50.0500,      23.5777
      50.4230,      23.8334
      50.7959,      24.2136
      51.1689,      24.3007
      51.5419,      23.7070
      51.9149,      22.2764
      52.2879,      20.2576
      52.6609,      18.2181
      53.0339,      16.7072
      53.4069,      15.9578
      53.7799,      15.8402
      54.1529,      16.0072
      54.5258,      16.0783
      54.8988,      15.7986
      55.2718,      15.1291
      55.6448,      14.2165
      56.0178,      13.2570
      56.3908,      12.3975
      56.7638,      11.7570
      57.1368,      11.4473
      57.5098,      11.4604
      57.8828,      11.5557
      58.2557,      11.3786
      58.6287,      10.7512
      59.0017,      9.82500
      59.3747,      8.95712
      59.7477,      8.45180
      60.1207,      8.35750
      60.4937,      8.43575
      60.8667,      8.34326
      61.2397,      7.91408
      61.6127,      7.30661
      61.9856,      6.88616
      62.3586,      6.95086
      62.7316,      7.51713
      63.1046,      8.28789
      63.4776,      8.79373
      63.8506,      8.63626
      64.2236,      7.72005
      64.5966,      6.33836
      64.9696,      5.03692
      65.3426,      4.30455
      65.7155,      4.28312
      66.0885,      4.71793
      66.4615,      5.16944
      66.8345,      5.27925
      67.2075,      4.90769
