# Freq.: 9.1830000e+09Hz; t_int: 166.44746h; (l,b) = (26.720889, 0.17008083)
     -197.384,     -1.43910
     -197.011,     -1.42831
     -196.638,     -1.41753
     -196.265,     -1.40676
     -195.892,     -1.39602
     -195.519,     -1.38528
     -195.146,     -1.37456
     -194.773,     -1.36386
     -194.400,     -1.35316
     -194.027,     -1.34249
     -193.654,     -1.33183
     -193.281,    -0.988679
     -192.908,    -0.547470
     -192.535,   -0.0303793
     -192.162,     0.230830
     -191.789,    0.0195049
     -191.416,    -0.584489
     -191.043,     -1.26601
     -190.670,     -1.75248
     -190.297,     -2.00407
     -189.924,     -2.11577
     -189.551,     -2.09322
     -189.178,     -1.78234
     -188.805,     -1.01312
     -188.432,     0.219502
     -188.059,      1.71848
     -187.686,      3.18157
     -187.313,      4.30522
     -186.940,      4.85871
     -186.567,      4.78831
     -186.194,      4.31493
     -185.821,      3.85238
     -185.448,      3.69366
     -185.075,      3.73322
     -184.702,      3.57482
     -184.329,      2.97715
     -183.956,      2.13832
     -183.583,      1.47397
     -183.210,      1.18854
     -182.837,      1.17864
     -182.464,      1.29846
     -182.091,      1.54529
     -181.718,      1.93461
     -181.345,      2.30967
     -180.972,      2.39246
     -180.599,      2.02648
     -180.226,      1.29042
     -179.853,     0.352917
     -179.480,    -0.661158
     -179.107,     -1.58436
     -178.734,     -2.15627
     -178.361,     -2.23741
     -177.988,     -1.96055
     -177.615,     -1.50745
     -177.242,    -0.882976
     -176.869,    -0.128504
     -176.496,     0.369662
     -176.123,    0.0796115
     -175.750,     -1.12269
     -175.377,     -2.73000
     -175.004,     -3.95773
     -174.631,     -4.28700
     -174.258,     -3.73436
     -173.885,     -2.71303
     -173.512,     -1.66696
     -173.139,    -0.799032
     -172.766,    -0.102434
     -172.393,     0.430910
     -172.020,     0.744512
     -171.647,     0.841499
     -171.274,     0.801122
     -170.901,     0.593811
     -170.528,    0.0419583
     -170.155,    -0.876152
     -169.782,     -1.76519
     -169.409,     -2.03950
     -169.036,     -1.45216
     -168.663,    -0.319701
     -168.290,     0.798704
     -167.917,      1.58556
     -167.544,      2.12030
     -167.171,      2.62168
     -166.798,      3.10107
     -166.425,      3.30077
     -166.052,      2.96711
     -165.679,      2.13284
     -165.306,      1.11076
     -164.933,     0.278490
     -164.560,   -0.0919454
     -164.187,    0.0875840
     -163.814,     0.642453
     -163.441,      1.13389
     -163.068,      1.10093
     -162.695,     0.422219
     -162.322,    -0.578818
     -161.949,     -1.40655
     -161.576,     -1.72740
     -161.203,     -1.46610
     -160.830,    -0.743191
     -160.457,     0.143239
     -160.084,     0.743255
     -159.711,     0.666792
     -159.338,   -0.0906342
     -158.965,     -1.02166
     -158.592,     -1.38033
     -158.219,    -0.721330
     -157.846,     0.700794
     -157.473,      2.05416
     -157.100,      2.53009
     -156.727,      1.90839
     -156.354,     0.625077
     -155.981,    -0.600917
     -155.608,     -1.18811
     -155.235,    -0.918556
     -154.862,    0.0103627
     -154.489,      1.08354
     -154.116,      1.74961
     -153.743,      1.76641
     -153.370,      1.32501
     -152.997,     0.820021
     -152.624,     0.495595
     -152.251,     0.336834
     -151.878,     0.267516
     -151.505,     0.307059
     -151.132,     0.438961
     -150.759,     0.454185
     -150.386,     0.119385
     -150.013,    -0.515659
     -149.640,     -1.12601
     -149.267,     -1.44527
     -148.894,     -1.52297
     -148.521,     -1.67163
     -148.148,     -2.19961
     -147.775,     -3.12937
     -147.402,     -4.07116
     -147.029,     -4.35624
     -146.656,     -3.43464
     -146.283,     -1.35962
     -145.910,      1.05657
     -145.537,      2.72289
     -145.164,      3.04893
     -144.791,      2.25294
     -144.418,     0.948076
     -144.045,    -0.387537
     -143.672,     -1.47266
     -143.299,     -2.03197
     -142.926,     -1.86315
     -142.553,     -1.09632
     -142.180,    -0.185710
     -141.807,     0.428885
     -141.434,     0.590259
     -141.061,     0.387485
     -140.688,  -0.00671244
     -140.315,    -0.406194
     -139.942,    -0.614319
     -139.568,    -0.482876
     -139.195,   -0.0224462
     -138.822,     0.546158
     -138.449,     0.866350
     -138.076,     0.625295
     -137.703,    -0.248019
     -137.330,     -1.50168
     -136.957,     -2.68446
     -136.584,     -3.40394
     -136.211,     -3.53908
     -135.838,     -3.26023
     -135.465,     -2.85238
     -135.092,     -2.49932
     -134.719,     -2.20901
     -134.346,     -1.89955
     -133.973,     -1.52342
     -133.600,     -1.12561
     -133.227,    -0.800983
     -132.854,    -0.583235
     -132.481,    -0.399874
     -132.108,    -0.182721
     -131.735,    0.0141780
     -131.362,    0.0782861
     -130.989,    0.0193703
     -130.616,    0.0708179
     -130.243,     0.599722
     -129.870,      1.80478
     -129.497,      3.37278
     -129.124,      4.49510
     -128.751,      4.42517
     -128.378,      3.13271
     -128.005,      1.38436
     -127.632,     0.132947
     -127.259,    -0.204048
     -126.886,    0.0734168
     -126.513,     0.400048
     -126.140,     0.529408
     -125.767,     0.672466
     -125.394,      1.13561
     -125.021,      1.91957
     -124.648,      2.67204
     -124.275,      2.98015
     -123.902,      2.73513
     -123.529,      2.25225
     -123.156,      2.00175
     -122.783,      2.19272
     -122.410,      2.61395
     -122.037,      2.83819
     -121.664,      2.56243
     -121.291,      1.81926
     -120.918,     0.936867
     -120.545,     0.303224
     -120.172,     0.112912
     -119.799,     0.259887
     -119.426,     0.429027
     -119.053,     0.327199
     -118.680,    -0.102840
     -118.307,    -0.657381
     -117.934,     -1.04797
     -117.561,     -1.09616
     -117.188,    -0.784051
     -116.815,    -0.199133
     -116.442,     0.495733
     -116.069,      1.06867
     -115.696,      1.31642
     -115.323,      1.23532
     -114.950,      1.06711
     -114.577,      1.10821
     -114.204,      1.44162
     -113.831,      1.87635
     -113.458,      2.18492
     -113.085,      2.35528
     -112.712,      2.51937
     -112.339,      2.68166
     -111.966,      2.68329
     -111.593,      2.47031
     -111.220,      2.25522
     -110.847,      2.30394
     -110.474,      2.60931
     -110.101,      2.85263
     -109.728,      2.66037
     -109.355,      1.85884
     -108.982,     0.565984
     -108.609,    -0.837486
     -108.236,     -1.83848
     -107.863,     -2.02810
     -107.490,     -1.31837
     -107.117,    0.0276657
     -106.744,      1.53628
     -106.371,      2.69784
     -105.998,      3.13855
     -105.625,      2.77867
     -105.252,      1.84578
     -104.879,     0.686832
     -104.506,    -0.418209
     -104.133,     -1.25350
     -103.760,     -1.60380
     -103.387,     -1.34875
     -103.014,    -0.643218
     -102.641,    0.0712682
     -102.268,     0.304398
     -101.895,    -0.139416
     -101.522,    -0.935437
     -101.149,     -1.36600
     -100.776,    -0.854390
     -100.403,     0.493729
     -100.030,      1.93073
     -99.6569,      2.71928
     -99.2839,      2.71045
     -98.9109,      2.27200
     -98.5379,      1.78367
     -98.1649,      1.34417
     -97.7918,     0.936247
     -97.4188,     0.688994
     -97.0458,     0.841197
     -96.6728,      1.47732
     -96.2998,      2.37665
     -95.9268,      3.13958
     -95.5538,      3.48364
     -95.1808,      3.45763
     -94.8078,      3.35643
     -94.4348,      3.40935
     -94.0618,      3.60463
     -93.6888,      3.83903
     -93.3158,      4.11765
     -92.9428,      4.48967
     -92.5698,      4.86508
     -92.1968,      5.06615
     -91.8238,      5.07807
     -91.4507,      5.10715
     -91.0777,      5.30453
     -90.7047,      5.48729
     -90.3317,      5.22008
     -89.9587,      4.21866
     -89.5857,      2.69926
     -89.2127,      1.33004
     -88.8397,     0.779147
     -88.4667,      1.22204
     -88.0937,      2.23520
     -87.7207,      3.14571
     -87.3477,      3.49876
     -86.9747,      3.29507
     -86.6017,      2.90075
     -86.2287,      2.70063
     -85.8557,      2.73417
     -85.4827,      2.69276
     -85.1096,      2.34577
     -84.7366,      1.88309
     -84.3636,      1.69980
     -83.9906,      1.89094
     -83.6176,      2.10685
     -83.2446,      1.92092
     -82.8716,      1.25317
     -82.4986,     0.417794
     -82.1256,    -0.173498
     -81.7526,    -0.298005
     -81.3796,    0.0383416
     -81.0066,     0.689577
     -80.6336,      1.40179
     -80.2606,      1.86554
     -79.8876,      1.87381
     -79.5146,      1.41604
     -79.1416,     0.609312
     -78.7685,    -0.379089
     -78.3955,     -1.35011
     -78.0225,     -2.13020
     -77.6495,     -2.64928
     -77.2765,     -2.91903
     -76.9035,     -2.91861
     -76.5305,     -2.52987
     -76.1575,     -1.64365
     -75.7845,    -0.378237
     -75.4115,     0.847896
     -75.0385,      1.56301
     -74.6655,      1.61338
     -74.2925,      1.26824
     -73.9195,     0.946083
     -73.5465,     0.882502
     -73.1735,      1.05374
     -72.8005,      1.26423
     -72.4274,      1.21760
     -72.0544,     0.675069
     -71.6814,    -0.291384
     -71.3084,     -1.31397
     -70.9354,     -2.11914
     -70.5624,     -2.78046
     -70.1894,     -3.46839
     -69.8164,     -4.07025
     -69.4434,     -4.19620
     -69.0704,     -3.53681
     -68.6974,     -2.18865
     -68.3244,    -0.669968
     -67.9514,     0.418900
     -67.5784,     0.844467
     -67.2054,     0.862241
     -66.8324,     0.870128
     -66.4594,      1.00022
     -66.0863,      1.10240
     -65.7133,      1.02777
     -65.3403,     0.785734
     -64.9673,     0.462536
     -64.5943,     0.146771
     -64.2213,   -0.0494251
     -63.8483,   -0.0452808
     -63.4753,    0.0633477
     -63.1023,    0.0168014
     -62.7293,    -0.341187
     -62.3563,    -0.827953
     -61.9833,     -1.04070
     -61.6103,    -0.742872
     -61.2373,    -0.101502
     -60.8643,     0.463896
     -60.4913,     0.636375
     -60.1183,     0.421710
     -59.7452,    0.0821348
     -59.3722,   -0.0982535
     -58.9992,    0.0220248
     -58.6262,     0.434872
     -58.2532,      1.00242
     -57.8802,      1.45004
     -57.5072,      1.47436
     -57.1342,     0.971602
     -56.7612,     0.130202
     -56.3882,    -0.745616
     -56.0152,     -1.47523
     -55.6422,     -2.06325
     -55.2692,     -2.59788
     -54.8962,     -3.11860
     -54.5232,     -3.50220
     -54.1502,     -3.44022
     -53.7772,     -2.63688
     -53.4041,     -1.11862
     -53.0311,     0.686515
     -52.6581,      2.19613
     -52.2851,      2.98433
     -51.9121,      2.94138
     -51.5391,      2.27181
     -51.1661,      1.35912
     -50.7931,     0.548511
     -50.4201,   -0.0109950
     -50.0471,    -0.349568
     -49.6741,    -0.548159
     -49.3011,    -0.660154
     -48.9281,    -0.727983
     -48.5551,    -0.799873
     -48.1821,    -0.885162
     -47.8091,    -0.908951
     -47.4361,    -0.760446
     -47.0630,    -0.428404
     -46.6900,   -0.0903558
     -46.3170,   -0.0394621
     -45.9440,    -0.503824
     -45.5710,     -1.50905
     -45.1980,     -2.83790
     -44.8250,     -4.05548
     -44.4520,     -4.64943
     -44.0790,     -4.34200
     -43.7060,     -3.36655
     -43.3330,     -2.35239
     -42.9600,     -1.82929
     -42.5870,     -1.82725
     -42.2140,     -1.94300
     -41.8410,     -1.72211
     -41.4680,    -0.975831
     -41.0950,     0.122047
     -40.7220,      1.12788
     -40.3489,      1.60303
     -39.9759,      1.44871
     -39.6029,     0.966546
     -39.2299,     0.509984
     -38.8569,     0.129807
     -38.4839,    -0.322443
     -38.1109,    -0.805573
     -37.7379,    -0.999093
     -37.3649,    -0.652011
     -36.9919,     0.112149
     -36.6189,     0.924288
     -36.2459,      1.52604
     -35.8729,      1.89097
     -35.4999,      2.02305
     -35.1269,      1.80842
     -34.7539,      1.19387
     -34.3808,     0.431067
     -34.0078,   -0.0220826
     -33.6348,     0.126552
     -33.2618,     0.787749
     -32.8888,      1.60726
     -32.5158,      2.19548
     -32.1428,      2.26211
     -31.7698,      1.68609
     -31.3968,     0.585899
     -31.0238,    -0.690583
     -30.6508,     -1.72377
     -30.2778,     -2.21056
     -29.9048,     -2.04955
     -29.5318,     -1.35249
     -29.1588,    -0.424879
     -28.7858,     0.344434
     -28.4128,     0.663434
     -28.0397,     0.427140
     -27.6667,    -0.309644
     -27.2937,     -1.33203
     -26.9207,     -2.25196
     -26.5477,     -2.66347
     -26.1747,     -2.40713
     -25.8017,     -1.63805
     -25.4287,    -0.628655
     -25.0557,     0.414034
     -24.6827,      1.31399
     -24.3097,      1.81509
     -23.9367,      1.63598
     -23.5637,     0.676301
     -23.1907,    -0.868569
     -22.8177,     -2.58983
     -22.4447,     -4.00544
     -22.0717,     -4.67205
     -21.6987,     -4.33796
     -21.3256,     -3.10554
     -20.9526,     -1.43081
     -20.5796,    0.0953985
     -20.2066,      1.05166
     -19.8336,      1.38198
     -19.4606,      1.34462
     -19.0876,      1.25104
     -18.7146,      1.22333
     -18.3416,      1.17776
     -17.9686,      1.02355
     -17.5956,     0.872572
     -17.2226,      1.01447
     -16.8496,      1.58693
     -16.4766,      2.23358
     -16.1036,      2.20955
     -15.7306,     0.982691
     -15.3576,     -1.23395
     -14.9845,     -3.58572
     -14.6115,     -5.20374
     -14.2385,     -5.71364
     -13.8655,     -5.23287
     -13.4925,     -4.08786
     -13.1195,     -2.63749
     -12.7465,     -1.23629
     -12.3735,    -0.169915
     -12.0005,     0.461500
     -11.6275,     0.790036
     -11.2545,      1.05992
     -10.8815,      1.40327
     -10.5085,      1.73119
     -10.1355,      1.86929
     -9.76246,      1.76295
     -9.38946,      1.49572
     -9.01645,      1.15509
     -8.64345,     0.789451
     -8.27044,     0.504250
     -7.89743,     0.497956
     -7.52443,     0.919343
     -7.15142,      1.65685
     -6.77842,      2.26907
     -6.40541,      2.20974
     -6.03240,      1.26758
     -5.65940,    -0.164751
     -5.28639,     -1.32289
     -4.91339,     -1.62638
     -4.54038,     -1.05225
     -4.16737,   -0.0655966
     -3.79437,     0.754682
     -3.42136,      1.10246
     -3.04836,      1.09525
     -2.67535,      1.11391
     -2.30235,      1.47969
     -1.92934,      2.20325
     -1.55633,      2.95750
     -1.18333,      3.30721
    -0.810322,      3.08494
    -0.437316,      2.62154
   -0.0643098,      2.54678
     0.308696,      3.25774
     0.681702,      4.54739
      1.05471,      5.75543
      1.42771,      6.27322
      1.80072,      5.93495
      2.17373,      5.01087
      2.54673,      3.90440
      2.91974,      2.88262
      3.29274,      2.05990
      3.66575,      1.52578
      4.03875,      1.36473
      4.41176,      1.54152
      4.78477,      1.85702
      5.15777,      2.06153
      5.53078,      1.97897
      5.90378,      1.53621
      6.27679,     0.781539
      6.64980,   -0.0548060
      7.02280,    -0.594728
      7.39581,    -0.549555
      7.76881,    0.0106268
      8.14182,     0.665140
      8.51482,     0.991608
      8.88783,     0.946442
      9.26084,     0.898240
      9.63384,      1.27150
      10.0068,      2.16833
      10.3799,      3.34611
      10.7529,      4.50125
      11.1259,      5.51668
      11.4989,      6.50376
      11.8719,      7.69020
      12.2449,      9.19701
      12.6179,      10.8209
      12.9909,      12.0754
      13.3639,      12.5260
      13.7369,      12.0910
      14.1099,      11.0633
      14.4829,      9.94489
      14.8559,      9.24807
      15.2289,      9.29830
      15.6019,      10.0991
      15.9749,      11.3756
      16.3479,      12.7862
      16.7210,      14.1182
      17.0940,      15.3131
      17.4670,      16.3631
      17.8400,      17.2223
      18.2130,      17.8207
      18.5860,      18.1669
      18.9590,      18.4120
      19.3320,      18.7538
      19.7050,      19.2855
      20.0780,      19.9991
      20.4510,      20.8989
      20.8240,      21.9872
      21.1970,      23.1401
      21.5700,      24.1615
      21.9430,      25.0627
      22.3160,      26.1832
      22.6890,      27.8630
      23.0621,      30.0094
      23.4351,      32.1296
      23.8081,      33.7915
      24.1811,      34.8979
      24.5541,      35.4951
      24.9271,      35.5367
      25.3001,      35.0154
      25.6731,      34.2538
      26.0461,      33.8729
      26.4191,      34.3740
      26.7921,      35.7486
      27.1651,      37.5140
      27.5381,      39.1414
      27.9111,      40.4317
      28.2841,      41.4551
      28.6571,      42.1995
      29.0301,      42.4320
      29.4032,      41.9629
      29.7762,      40.9280
      30.1492,      39.6977
      30.5222,      38.5758
      30.8952,      37.7183
      31.2682,      37.2868
      31.6412,      37.4750
      32.0142,      38.3063
      32.3872,      39.4919
      32.7602,      40.5514
      33.1332,      41.0555
      33.5062,      40.7571
      33.8792,      39.5770
      34.2522,      37.5982
      34.6252,      35.1619
      34.9982,      32.8910
      35.3712,      31.4233
      35.7443,      31.0036
      36.1173,      31.3560
      36.4903,      31.9827
      36.8633,      32.5647
      37.2363,      33.0815
      37.6093,      33.5889
      37.9823,      33.9199
      38.3553,      33.6633
      38.7283,      32.5091
      39.1013,      30.6175
      39.4743,      28.5569
      39.8473,      26.8183
      40.2203,      25.4340
      40.5933,      24.1255
      40.9663,      22.7796
      41.3393,      21.6637
      41.7123,      21.1245
      42.0854,      21.1458
      42.4584,      21.3002
      42.8314,      21.1396
      43.2044,      20.5574
      43.5774,      19.7342
      43.9504,      18.8087
      44.3234,      17.7252
      44.6964,      16.4260
      45.0694,      15.0857
      45.4424,      14.0662
      45.8154,      13.6293
      46.1884,      13.7029
      46.5614,      13.9267
      46.9344,      13.9238
      47.3074,      13.5487
      47.6804,      12.9183
      48.0534,      12.2371
      48.4265,      11.5960
      48.7995,      10.9221
      49.1725,      10.1080
      49.5455,      9.17999
      49.9185,      8.32556
      50.2915,      7.73520
      50.6645,      7.43561
      51.0375,      7.29844
      51.4105,      7.14450
      51.7835,      6.76619
      52.1565,      5.94537
      52.5295,      4.62977
      52.9025,      3.11836
      53.2755,      1.93931
      53.6485,      1.45980
      54.0215,      1.65365
      54.3945,      2.24747
      54.7676,      2.97635
      55.1406,      3.66124
      55.5136,      4.18125
      55.8866,      4.51404
      56.2596,      4.79156
      56.6326,      5.20207
      57.0056,      5.75311
      57.3786,      6.16012
      57.7516,      6.06044
      58.1246,      5.35890
      58.4976,      4.32753
      58.8706,      3.39630
      59.2436,      2.90089
      59.6166,      2.98054
      59.9896,      3.58834
      60.3626,      4.51292
      60.7356,      5.40403
      61.1087,      5.88863
      61.4817,      5.78108
      61.8547,      5.19752
      62.2277,      4.44609
      62.6007,      3.83997
      62.9737,      3.59245
      63.3467,      3.74987
      63.7197,      4.14571
      64.0927,      4.48842
      64.4657,      4.56575
      64.8387,      4.38299
      65.2117,      4.15830
      65.5847,      4.22922
      65.9577,      4.87064
      66.3307,      6.05496
      66.7037,      7.37099
      67.0767,      8.26237
      67.4498,      8.40764
