# Freq.: 9.1830000e+09Hz; t_int: 499.69496h; (l,b) = (21.003848, -0.055538828)
     -197.559,      0.00000
     -197.186,      0.00000
     -196.813,      0.00000
     -196.440,      0.00000
     -196.067,      0.00000
     -195.694,      0.00000
     -195.321,      0.00000
     -194.948,      0.00000
     -194.575,      0.00000
     -194.202,      0.00000
     -193.829,      0.00000
     -193.456,    -0.217667
     -193.083,    -0.658647
     -192.710,     -1.15467
     -192.337,     -1.49310
     -191.963,     -1.60241
     -191.590,     -1.57444
     -191.217,     -1.58166
     -190.844,     -1.71488
     -190.471,     -1.88540
     -190.098,     -1.91631
     -189.725,     -1.72988
     -189.352,     -1.41432
     -188.979,     -1.11081
     -188.606,    -0.878977
     -188.233,    -0.692552
     -187.860,    -0.523427
     -187.487,    -0.369602
     -187.114,    -0.201201
     -186.741,    0.0588469
     -186.368,     0.470830
     -185.995,      1.03625
     -185.622,      1.74240
     -185.249,      2.59293
     -184.876,      3.53276
     -184.503,      4.35550
     -184.130,      4.75216
     -183.757,      4.51493
     -183.384,      3.72503
     -183.011,      2.73755
     -182.638,      1.95080
     -182.265,      1.54956
     -181.892,      1.44563
     -181.518,      1.45350
     -181.145,      1.50233
     -180.772,      1.66529
     -180.399,      2.01621
     -180.026,      2.49787
     -179.653,      2.91426
     -179.280,      3.02445
     -178.907,      2.67769
     -178.534,      1.90958
     -178.161,     0.920905
     -177.788,   -0.0263568
     -177.415,    -0.686176
     -177.042,    -0.874657
     -176.669,    -0.551054
     -176.296,     0.123863
     -175.923,     0.859890
     -175.550,      1.38524
     -175.177,      1.53934
     -174.804,      1.30823
     -174.431,     0.843023
     -174.058,     0.396049
     -173.685,     0.147571
     -173.312,    0.0859846
     -172.939,    0.0991236
     -172.566,     0.167707
     -172.193,     0.400285
     -171.820,     0.860946
     -171.447,      1.42818
     -171.073,      1.86281
     -170.700,      1.97898
     -170.327,      1.75170
     -169.954,      1.34008
     -169.581,      1.02826
     -169.208,      1.04938
     -168.835,      1.38549
     -168.462,      1.75427
     -168.089,      1.83996
     -167.716,      1.55088
     -167.343,      1.04796
     -166.970,     0.553204
     -166.597,     0.184334
     -166.224,   -0.0337972
     -165.851,   -0.0878829
     -165.478,    0.0247992
     -165.105,     0.239054
     -164.732,     0.420043
     -164.359,     0.434793
     -163.986,     0.208559
     -163.613,    -0.275799
     -163.240,    -0.969327
     -162.867,     -1.70387
     -162.494,     -2.19240
     -162.121,     -2.17857
     -161.748,     -1.64121
     -161.375,    -0.835140
     -161.002,    -0.108381
     -160.628,     0.302579
     -160.255,     0.305024
     -159.882,    -0.113245
     -159.509,    -0.851139
     -159.136,     -1.61318
     -158.763,     -2.01898
     -158.390,     -1.89599
     -158.017,     -1.41574
     -157.644,    -0.884653
     -157.271,    -0.446357
     -156.898,   -0.0447810
     -156.525,     0.362799
     -156.152,     0.655840
     -155.779,     0.663679
     -155.406,     0.393245
     -155.033,    0.0788726
     -154.660,   -0.0121088
     -154.287,     0.199368
     -153.914,     0.561853
     -153.541,     0.820171
     -153.168,     0.789810
     -152.795,     0.473616
     -152.422,    0.0371100
     -152.049,    -0.347778
     -151.676,    -0.624429
     -151.303,    -0.802552
     -150.930,    -0.835797
     -150.557,    -0.628418
     -150.183,    -0.198563
     -149.810,     0.199931
     -149.437,     0.197994
     -149.064,    -0.373262
     -148.691,     -1.27311
     -148.318,     -1.99808
     -147.945,     -2.17263
     -147.572,     -1.79184
     -147.199,     -1.09629
     -146.826,    -0.303131
     -146.453,     0.463960
     -146.080,      1.07131
     -145.707,      1.38465
     -145.334,      1.42470
     -144.961,      1.39375
     -144.588,      1.46613
     -144.215,      1.60210
     -143.842,      1.62022
     -143.469,      1.41307
     -143.096,      1.04629
     -142.723,     0.676919
     -142.350,     0.423425
     -141.977,     0.310506
     -141.604,     0.290005
     -141.231,     0.271491
     -140.858,     0.151772
     -140.485,    -0.111280
     -140.112,    -0.434581
     -139.738,    -0.689107
     -139.365,    -0.865193
     -138.992,     -1.07143
     -138.619,     -1.32748
     -138.246,     -1.45402
     -137.873,     -1.25875
     -137.500,    -0.798283
     -137.127,    -0.383067
     -136.754,    -0.314815
     -136.381,    -0.641841
     -136.008,     -1.14483
     -135.635,     -1.50388
     -135.262,     -1.49629
     -134.889,     -1.13816
     -134.516,    -0.700850
     -134.143,    -0.535378
     -133.770,    -0.790175
     -133.397,     -1.27420
     -133.024,     -1.60997
     -132.651,     -1.52874
     -132.278,     -1.05376
     -131.905,    -0.464278
     -131.532,   -0.0920318
     -131.159,   -0.0833030
     -130.786,    -0.295997
     -130.413,    -0.424748
     -130.040,    -0.265063
     -129.667,    0.0949707
     -129.293,     0.327157
     -128.920,     0.148309
     -128.547,    -0.393974
     -128.174,    -0.919751
     -127.801,     -1.03908
     -127.428,    -0.690479
     -127.055,    -0.147363
     -126.682,     0.278646
     -126.309,     0.463138
     -125.936,     0.398875
     -125.563,    0.0352437
     -125.190,    -0.680421
     -124.817,     -1.62079
     -124.444,     -2.45910
     -124.071,     -2.88754
     -123.698,     -2.81634
     -123.325,     -2.35283
     -122.952,     -1.66093
     -122.579,    -0.881254
     -122.206,    -0.123726
     -121.833,     0.539330
     -121.460,      1.06599
     -121.087,      1.38893
     -120.714,      1.39785
     -120.341,      1.05508
     -119.968,     0.531454
     -119.595,     0.154824
     -119.222,     0.196941
     -118.848,     0.728862
     -118.475,      1.63820
     -118.102,      2.69984
     -117.729,      3.63340
     -117.356,      4.18511
     -116.983,      4.21387
     -116.610,      3.69827
     -116.237,      2.68429
     -115.864,      1.28110
     -115.491,    -0.290349
     -115.118,     -1.71557
     -114.745,     -2.72792
     -114.372,     -3.24981
     -113.999,     -3.37323
     -113.626,     -3.21880
     -113.253,     -2.86999
     -112.880,     -2.44009
     -112.507,     -2.11879
     -112.134,     -2.07879
     -111.761,     -2.31673
     -111.388,     -2.60786
     -111.015,     -2.66025
     -110.642,     -2.35042
     -110.269,     -1.82720
     -109.896,     -1.38927
     -109.523,     -1.24900
     -109.150,     -1.39643
     -108.777,     -1.66188
     -108.403,     -1.85921
     -108.030,     -1.86150
     -107.657,     -1.62037
     -107.284,     -1.19302
     -106.911,    -0.743193
     -106.538,    -0.465212
     -106.165,    -0.467977
     -105.792,    -0.696937
     -105.419,    -0.948588
     -105.046,    -0.992063
     -104.673,    -0.737020
     -104.300,    -0.315374
     -103.927,   0.00787077
     -103.554,    0.0243174
     -103.181,    -0.284313
     -102.808,    -0.750353
     -102.435,     -1.12635
     -102.062,     -1.22405
     -101.689,     -1.02518
     -101.316,    -0.691344
     -100.943,    -0.438870
     -100.570,    -0.371785
     -100.197,    -0.430863
     -99.8237,    -0.501244
     -99.4506,    -0.550645
     -99.0776,    -0.642027
     -98.7045,    -0.815130
     -98.3315,    -0.997511
     -97.9585,     -1.06564
     -97.5854,    -0.966949
     -97.2124,    -0.746215
     -96.8394,    -0.474417
     -96.4663,    -0.190949
     -96.0933,    0.0808844
     -95.7203,     0.284853
     -95.3472,     0.339569
     -94.9742,     0.226553
     -94.6012,    0.0474970
     -94.2281,   -0.0477681
     -93.8551,    0.0109158
     -93.4820,     0.175340
     -93.1090,     0.361827
     -92.7360,     0.565238
     -92.3629,     0.886161
     -91.9899,      1.41884
     -91.6169,      2.09277
     -91.2438,      2.65351
     -90.8708,      2.84081
     -90.4978,      2.59196
     -90.1247,      2.06792
     -89.7517,      1.51244
     -89.3786,      1.11760
     -89.0056,     0.985370
     -88.6326,      1.10887
     -88.2595,      1.32444
     -87.8865,      1.35316
     -87.5135,      1.02009
     -87.1404,     0.461229
     -86.7674,    0.0419173
     -86.3944,    0.0412208
     -86.0213,     0.441793
     -85.6483,     0.992733
     -85.2753,      1.39708
     -84.9022,      1.45556
     -84.5292,      1.14495
     -84.1562,     0.625930
     -83.7831,     0.144232
     -83.4101,    -0.123428
     -83.0370,    -0.154630
     -82.6640,   -0.0561063
     -82.2910,    0.0196206
     -81.9179,   -0.0298412
     -81.5449,    -0.184933
     -81.1719,    -0.314164
     -80.7988,    -0.281432
     -80.4258,   -0.0809417
     -80.0528,     0.105802
     -79.6797,   0.00715870
     -79.3067,    -0.517155
     -78.9336,     -1.30746
     -78.5606,     -1.97583
     -78.1876,     -2.18450
     -77.8145,     -1.87060
     -77.4415,     -1.21390
     -77.0685,    -0.426695
     -76.6954,     0.385294
     -76.3224,      1.17729
     -75.9494,      1.86387
     -75.5763,      2.31980
     -75.2033,      2.46946
     -74.8303,      2.35075
     -74.4572,      2.08276
     -74.0842,      1.74838
     -73.7111,      1.29832
     -73.3381,     0.609711
     -72.9651,    -0.330840
     -72.5920,     -1.32624
     -72.2190,     -2.07001
     -71.8460,     -2.33700
     -71.4729,     -2.09146
     -71.0999,     -1.47260
     -70.7269,    -0.718587
     -70.3538,   -0.0761947
     -69.9808,     0.287592
     -69.6077,     0.339914
     -69.2347,     0.167620
     -68.8617,   -0.0841555
     -68.4886,    -0.262769
     -68.1156,    -0.253211
     -67.7426,   -0.0600399
     -67.3695,     0.142866
     -66.9965,     0.122834
     -66.6235,    -0.196715
     -66.2504,    -0.652384
     -65.8774,    -0.995819
     -65.5044,     -1.11501
     -65.1313,     -1.09304
     -64.7583,     -1.09535
     -64.3853,     -1.24020
     -64.0122,     -1.53054
     -63.6392,     -1.83628
     -63.2661,     -1.95633
     -62.8931,     -1.77625
     -62.5201,     -1.40638
     -62.1470,     -1.13620
     -61.7740,     -1.19475
     -61.4010,     -1.52800
     -61.0279,     -1.83364
     -60.6549,     -1.83657
     -60.2819,     -1.51832
     -59.9088,     -1.07775
     -59.5358,    -0.718420
     -59.1628,    -0.513784
     -58.7897,    -0.435613
     -58.4167,    -0.427189
     -58.0436,    -0.426085
     -57.6706,    -0.373369
     -57.2976,    -0.246954
     -56.9245,   -0.0768745
     -56.5515,    0.0814319
     -56.1785,     0.171247
     -55.8054,     0.141948
     -55.4324,   -0.0173687
     -55.0594,    -0.234977
     -54.6863,    -0.376073
     -54.3133,    -0.310412
     -53.9403,    0.0285734
     -53.5672,     0.570461
     -53.1942,      1.04651
     -52.8211,      1.09803
     -52.4481,     0.567456
     -52.0751,    -0.311814
     -51.7020,     -1.05764
     -51.3290,     -1.26877
     -50.9560,    -0.834243
     -50.5829,    0.0712945
     -50.2099,      1.10173
     -49.8369,      1.90006
     -49.4638,      2.27471
     -49.0908,      2.26883
     -48.7178,      2.04171
     -48.3447,      1.69470
     -47.9717,      1.22563
     -47.5986,     0.618695
     -47.2256,   -0.0537637
     -46.8526,    -0.621296
     -46.4795,    -0.926187
     -46.1065,    -0.966169
     -45.7335,    -0.903252
     -45.3604,    -0.910545
     -44.9874,     -1.03193
     -44.6144,     -1.19206
     -44.2413,     -1.30071
     -43.8683,     -1.33002
     -43.4952,     -1.31400
     -43.1222,     -1.29352
     -42.7492,     -1.25885
     -42.3761,     -1.13016
     -42.0031,    -0.799289
     -41.6301,    -0.235503
     -41.2570,     0.418484
     -40.8840,     0.891839
     -40.5110,     0.990801
     -40.1379,     0.780211
     -39.7649,     0.540450
     -39.3919,     0.532483
     -39.0188,     0.813450
     -38.6458,      1.26269
     -38.2727,      1.71896
     -37.8997,      2.04985
     -37.5267,      2.15149
     -37.1536,      1.98930
     -36.7806,      1.65936
     -36.4076,      1.34736
     -36.0345,      1.19647
     -35.6615,      1.22390
     -35.2885,      1.34103
     -34.9154,      1.41187
     -34.5424,      1.30748
     -34.1694,     0.971411
     -33.7963,     0.470774
     -33.4233,   -0.0342643
     -33.0502,    -0.403034
     -32.6772,    -0.615126
     -32.3042,    -0.769397
     -31.9311,    -0.991425
     -31.5581,     -1.33677
     -31.1851,     -1.74562
     -30.8120,     -2.05232
     -30.4390,     -2.07356
     -30.0660,     -1.76246
     -29.6929,     -1.28113
     -29.3199,    -0.880068
     -28.9469,    -0.705623
     -28.5738,    -0.731060
     -28.2008,    -0.838555
     -27.8277,    -0.939854
     -27.4547,     -1.02718
     -27.0817,     -1.13048
     -26.7086,     -1.25361
     -26.3356,     -1.36868
     -25.9626,     -1.44965
     -25.5895,     -1.47353
     -25.2165,     -1.39528
     -24.8435,     -1.17350
     -24.4704,    -0.843334
     -24.0974,    -0.523645
     -23.7243,    -0.317988
     -23.3513,    -0.228229
     -22.9783,    -0.182509
     -22.6052,    -0.120757
     -22.2322,   -0.0280346
     -21.8592,    0.0981369
     -21.4861,     0.265364
     -21.1131,     0.428368
     -20.7401,     0.422744
     -20.3670,    0.0344461
     -19.9940,    -0.782227
     -19.6210,     -1.75254
     -19.2479,     -2.41606
     -18.8749,     -2.46757
     -18.5019,     -1.96568
     -18.1288,     -1.21980
     -17.7558,    -0.533944
     -17.3827,   -0.0752590
     -17.0097,     0.105690
     -16.6367,    0.0380353
     -16.2636,    -0.175044
     -15.8906,    -0.388971
     -15.5176,    -0.496447
     -15.1445,    -0.483318
     -14.7715,    -0.400691
     -14.3985,    -0.294062
     -14.0254,    -0.185302
     -13.6524,    -0.120552
     -13.2793,    -0.184138
     -12.9063,    -0.408648
     -12.5333,    -0.672619
     -12.1602,    -0.753215
     -11.7872,    -0.535826
     -11.4142,    -0.148377
     -11.0411,     0.163018
     -10.6681,     0.269431
     -10.2951,     0.215898
     -9.92203,    0.0825840
     -9.54899,    -0.114847
     -9.17595,    -0.379221
     -8.80292,    -0.655752
     -8.42988,    -0.834917
     -8.05685,    -0.829549
     -7.68381,    -0.660914
     -7.31078,    -0.474775
     -6.93774,    -0.454184
     -6.56470,    -0.679564
     -6.19167,     -1.02933
     -5.81863,     -1.21932
     -5.44560,     -1.01992
     -5.07256,    -0.492429
     -4.69953,    0.0414726
     -4.32649,     0.314782
     -3.95345,     0.326824
     -3.58042,     0.177652
     -3.20738,    -0.190472
     -2.83435,    -0.911253
     -2.46131,     -1.86199
     -2.08827,     -2.58112
     -1.71524,     -2.63183
     -1.34220,     -2.02646
    -0.969167,     -1.23390
    -0.596132,    -0.758421
    -0.223096,    -0.725407
     0.149940,    -0.872589
     0.522976,    -0.894930
     0.896012,    -0.725052
      1.26905,    -0.478141
      1.64208,    -0.242421
      2.01512,   -0.0248290
      2.38815,     0.149887
      2.76119,     0.204231
      3.13423,    0.0920312
      3.50726,    -0.142516
      3.88030,    -0.405746
      4.25333,    -0.611526
      4.62637,    -0.686292
      4.99941,    -0.569954
      5.37244,    -0.260742
      5.74548,     0.147528
      6.11851,     0.510642
      6.49155,     0.742386
      6.86458,     0.886559
      7.23762,      1.08051
      7.61066,      1.43124
      7.98369,      1.91146
      8.35673,      2.38927
      8.72976,      2.76829
      9.10280,      3.06381
      9.47583,      3.31989
      9.84887,      3.50416
      10.2219,      3.53436
      10.5949,      3.37364
      10.9680,      3.05652
      11.3410,      2.65361
      11.7140,      2.25567
      12.0871,      1.97807
      12.4601,      1.93813
      12.8332,      2.19605
      13.2062,      2.69112
      13.5792,      3.23513
      13.9523,      3.62729
      14.3253,      3.83635
      14.6983,      4.04849
      15.0714,      4.48265
      15.4444,      5.16476
      15.8174,      5.90577
      16.1905,      6.46226
      16.5635,      6.67996
      16.9366,      6.54179
      17.3096,      6.18713
      17.6826,      5.90949
      18.0557,      6.04877
      18.4287,      6.77990
      18.8017,      7.95983
      19.1748,      9.19227
      19.5478,      10.0820
      19.9208,      10.4821
      20.2939,      10.5558
      20.6669,      10.6364
      21.0399,      11.0038
      21.4130,      11.7280
      21.7860,      12.6644
      22.1591,      13.5766
      22.5321,      14.2685
      22.9051,      14.6419
      23.2782,      14.7063
      23.6512,      14.5957
      24.0242,      14.5645
      24.3973,      14.8729
      24.7703,      15.5805
      25.1433,      16.4650
      25.5164,      17.2164
      25.8894,      17.7078
      26.2624,      18.0502
      26.6355,      18.4372
      27.0085,      18.9804
      27.3816,      19.6230
      27.7546,      20.1352
      28.1276,      20.2338
      28.5007,      19.7876
      28.8737,      18.9416
      29.2467,      18.0302
      29.6198,      17.3547
      29.9928,      17.0188
      30.3658,      16.9289
      30.7389,      16.9034
      31.1119,      16.7898
      31.4849,      16.5324
      31.8580,      16.1663
      32.2310,      15.7508
      32.6041,      15.3132
      32.9771,      14.8603
      33.3501,      14.4152
      33.7232,      14.0037
      34.0962,      13.6141
      34.4692,      13.2053
      34.8423,      12.7597
      35.2153,      12.3145
      35.5883,      11.9490
      35.9614,      11.7317
      36.3344,      11.6455
      36.7074,      11.5460
      37.0805,      11.2208
      37.4535,      10.5320
      37.8266,      9.54741
      38.1996,      8.55227
      38.5726,      7.88993
      38.9457,      7.71612
      39.3187,      7.88343
      39.6917,      8.08125
      40.0648,      8.08687
      40.4378,      7.87938
      40.8108,      7.55795
      41.1839,      7.21254
      41.5569,      6.87155
      41.9299,      6.50074
      42.3030,      5.99311
      42.6760,      5.18473
      43.0491,      3.95821
      43.4221,      2.38589
      43.7951,     0.777616
      44.1682,    -0.443649
      44.5412,    -0.959087
      44.9142,    -0.686139
      45.2873,     0.251418
      45.6603,      1.59865
      46.0333,      2.99432
      46.4064,      4.03977
      46.7794,      4.47548
      47.1525,      4.31014
      47.5255,      3.76341
      47.8985,      3.11638
      48.2716,      2.61370
      48.6446,      2.41495
      49.0176,      2.54777
      49.3907,      2.89940
      49.7637,      3.28636
      50.1367,      3.54517
      50.5098,      3.57391
      50.8828,      3.35557
      51.2558,      2.99384
      51.6289,      2.66619
      52.0019,      2.44612
      52.3750,      2.18387
      52.7480,      1.64029
      53.1210,     0.760054
      53.4941,    -0.196063
      53.8671,    -0.781248
      54.2401,    -0.664192
      54.6132,     0.110062
      54.9862,      1.12120
      55.3592,      1.85533
      55.7323,      2.01310
      56.1053,      1.60149
      56.4783,     0.837573
      56.8514,    0.0183341
      57.2244,    -0.599213
      57.5975,    -0.901962
      57.9705,    -0.924757
      58.3435,    -0.743337
      58.7166,    -0.405514
      59.0896,    0.0150127
      59.4626,     0.364303
      59.8357,     0.472255
      60.2087,     0.267721
      60.5817,    -0.175594
      60.9548,    -0.675683
      61.3278,     -1.02534
      61.7008,     -1.09946
      62.0739,    -0.926288
      62.4469,    -0.651111
      62.8200,    -0.409809
      63.1930,    -0.216794
      63.5660,    0.0189519
      63.9391,     0.335093
      64.3121,     0.593432
      64.6851,     0.601476
      65.0582,     0.373756
      65.4312,     0.183300
      65.8042,     0.296146
      66.1773,     0.698227
      66.5503,      1.13110
      66.9233,      1.35188
      67.2964,      1.28410
