# Freq.: 9.1830000e+09Hz; t_int: 166.54309h; (l,b) = (14.102869, 0.091009152)
     -197.483,      0.00000
     -197.110,      0.00000
     -196.737,      0.00000
     -196.364,      0.00000
     -195.991,      0.00000
     -195.618,      0.00000
     -195.245,      0.00000
     -194.872,      0.00000
     -194.499,      0.00000
     -194.126,      0.00000
     -193.753,      0.00000
     -193.380,      1.45551
     -193.007,      3.20907
     -192.634,      4.34503
     -192.261,      4.53135
     -191.888,      3.76538
     -191.515,      2.27067
     -191.142,     0.353988
     -190.769,     -1.68474
     -190.396,     -3.57598
     -190.023,     -5.11729
     -189.650,     -6.21355
     -189.277,     -6.83172
     -188.904,     -6.91924
     -188.531,     -6.42021
     -188.158,     -5.36401
     -187.785,     -3.88096
     -187.412,     -2.13119
     -187.039,    -0.266727
     -186.666,      1.54006
     -186.293,      3.07856
     -185.920,      4.11696
     -185.547,      4.44369
     -185.174,      3.98766
     -184.800,      2.99424
     -184.427,      2.01931
     -184.054,      1.56254
     -183.681,      1.61012
     -183.308,      1.62342
     -182.935,      1.08069
     -182.562,   0.00962847
     -182.189,     -1.06669
     -181.816,     -1.67360
     -181.443,     -1.78805
     -181.070,     -1.69524
     -180.697,     -1.57848
     -180.324,     -1.38409
     -179.951,     -1.02539
     -179.578,    -0.534768
     -179.205,   0.00496906
     -178.832,     0.538089
     -178.459,      1.01229
     -178.086,      1.35336
     -177.713,      1.46371
     -177.340,      1.24836
     -176.967,     0.732604
     -176.594,     0.133586
     -176.221,    -0.348815
     -175.848,    -0.818769
     -175.475,     -1.57261
     -175.102,     -2.64601
     -174.729,     -3.63152
     -174.356,     -4.03060
     -173.983,     -3.68887
     -173.610,     -2.83069
     -173.237,     -1.77692
     -172.864,    -0.748351
     -172.491,    0.0821334
     -172.118,     0.507591
     -171.745,     0.407165
     -171.371,   -0.0658784
     -170.998,    -0.544954
     -170.625,    -0.755233
     -170.252,    -0.716972
     -169.879,    -0.628408
     -169.506,    -0.582970
     -169.133,    -0.444471
     -168.760,   -0.0185999
     -168.387,     0.690971
     -168.014,      1.45111
     -167.641,      1.99035
     -167.268,      2.14643
     -166.895,      1.87244
     -166.522,      1.23918
     -166.149,     0.455227
     -165.776,    -0.228733
     -165.403,    -0.687164
     -165.030,    -0.937619
     -164.657,    -0.988106
     -164.284,    -0.753679
     -163.911,    -0.181484
     -163.538,     0.559953
     -163.165,      1.05791
     -162.792,     0.897049
     -162.419,    0.0247161
     -162.046,     -1.12437
     -161.673,     -1.95348
     -161.300,     -2.15072
     -160.927,     -1.77651
     -160.554,     -1.02658
     -160.181,   -0.0668266
     -159.808,     0.934418
     -159.435,      1.78227
     -159.062,      2.36292
     -158.689,      2.75009
     -158.316,      3.13053
     -157.942,      3.59233
     -157.569,      4.02884
     -157.196,      4.27615
     -156.823,      4.26059
     -156.450,      3.92603
     -156.077,      3.08935
     -155.704,      1.52933
     -155.331,    -0.702224
     -154.958,     -3.08710
     -154.585,     -4.85990
     -154.212,     -5.54153
     -153.839,     -5.26448
     -153.466,     -4.48939
     -153.093,     -3.46094
     -152.720,     -2.12819
     -152.347,    -0.572170
     -151.974,     0.775069
     -151.601,      1.48346
     -151.228,      1.53974
     -150.855,      1.28121
     -150.482,      1.02873
     -150.109,     0.897085
     -149.736,     0.873021
     -149.363,     0.958004
     -148.990,      1.24719
     -148.617,      1.88309
     -148.244,      2.86740
     -147.871,      3.89566
     -147.498,      4.42604
     -147.125,      3.96831
     -146.752,      2.39507
     -146.379,    0.0800924
     -146.006,     -2.24234
     -145.633,     -3.81956
     -145.260,     -4.20039
     -144.887,     -3.39521
     -144.513,     -1.85754
     -144.140,    -0.250778
     -143.767,     0.924398
     -143.394,      1.55391
     -143.021,      1.82626
     -142.648,      2.00890
     -142.275,      2.26657
     -141.902,      2.55499
     -141.529,      2.64550
     -141.156,      2.30393
     -140.783,      1.48051
     -140.410,     0.375903
     -140.037,    -0.618457
     -139.664,     -1.09380
     -139.291,    -0.874023
     -138.918,    -0.150583
     -138.545,     0.686195
     -138.172,      1.38278
     -137.799,      1.94621
     -137.426,      2.43787
     -137.053,      2.76030
     -136.680,      2.74323
     -136.307,      2.40858
     -135.934,      2.06046
     -135.561,      2.05776
     -135.188,      2.48659
     -134.815,      3.07099
     -134.442,      3.40932
     -134.069,      3.27237
     -133.696,      2.68569
     -133.323,      1.82310
     -132.950,     0.897602
     -132.577,     0.121276
     -132.204,    -0.304256
     -131.831,    -0.217935
     -131.458,     0.410126
     -131.084,      1.37687
     -130.711,      2.28580
     -130.338,      2.77961
     -129.965,      2.76534
     -129.592,      2.37457
     -129.219,      1.70312
     -128.846,     0.690915
     -128.473,    -0.666106
     -128.100,     -2.08121
     -127.727,     -3.11161
     -127.354,     -3.53782
     -126.981,     -3.51399
     -126.608,     -3.33118
     -126.235,     -3.10930
     -125.862,     -2.74627
     -125.489,     -2.12126
     -125.116,     -1.31794
     -124.743,    -0.642411
     -124.370,    -0.399265
     -123.997,    -0.628836
     -123.624,     -1.03565
     -123.251,     -1.13467
     -122.878,    -0.536225
     -122.505,     0.735613
     -122.132,      2.15616
     -121.759,      3.04210
     -121.386,      3.01368
     -121.013,      2.08961
     -120.640,     0.455431
     -120.267,     -1.68527
     -119.894,     -4.05474
     -119.521,     -6.22647
     -119.148,     -7.67719
     -118.775,     -7.99580
     -118.402,     -7.14781
     -118.029,     -5.52850
     -117.655,     -3.66802
     -117.282,     -1.87263
     -116.909,    -0.187636
     -116.536,      1.36772
     -116.163,      2.66550
     -115.790,      3.56796
     -115.417,      4.05442
     -115.044,      4.21566
     -114.671,      4.16727
     -114.298,      3.98708
     -113.925,      3.71231
     -113.552,      3.37108
     -113.179,      3.00975
     -112.806,      2.68930
     -112.433,      2.44167
     -112.060,      2.22859
     -111.687,      1.97209
     -111.314,      1.62696
     -110.941,      1.17692
     -110.568,     0.559676
     -110.195,    -0.325308
     -109.822,     -1.47759
     -109.449,     -2.67805
     -109.076,     -3.54866
     -108.703,     -3.76007
     -108.330,     -3.19704
     -107.957,     -1.96386
     -107.584,    -0.338915
     -107.211,      1.22329
     -106.838,      2.19423
     -106.465,      2.28548
     -106.092,      1.70078
     -105.719,     0.996743
     -105.346,     0.681984
     -104.973,     0.965370
     -104.600,      1.76718
     -104.226,      2.78906
     -103.853,      3.58197
     -103.480,      3.75753
     -103.107,      3.29968
     -102.734,      2.64467
     -102.361,      2.34029
     -101.988,      2.58163
     -101.615,      3.11386
     -101.242,      3.57053
     -100.869,      3.79935
     -100.496,      3.81440
     -100.123,      3.55911
     -99.7502,      2.86493
     -99.3771,      1.63829
     -99.0041,    0.0144624
     -98.6311,     -1.66483
     -98.2580,     -2.99351
     -97.8850,     -3.67366
     -97.5120,     -3.63030
     -97.1390,     -2.99960
     -96.7659,     -2.05441
     -96.3929,     -1.16371
     -96.0199,    -0.698809
     -95.6469,    -0.804786
     -95.2738,     -1.26877
     -94.9008,     -1.70515
     -94.5278,     -1.83481
     -94.1547,     -1.56001
     -93.7817,    -0.936892
     -93.4087,    -0.208993
     -93.0357,     0.250857
     -92.6626,     0.204439
     -92.2896,    -0.239280
     -91.9166,    -0.743146
     -91.5435,     -1.05077
     -91.1705,     -1.09860
     -90.7975,    -0.882505
     -90.4245,    -0.431540
     -90.0514,    0.0107000
     -89.6784,  -0.00234189
     -89.3054,    -0.721718
     -88.9324,     -1.88318
     -88.5593,     -2.92332
     -88.1863,     -3.48632
     -87.8133,     -3.65284
     -87.4402,     -3.73344
     -87.0672,     -3.91578
     -86.6942,     -4.07608
     -86.3212,     -3.85753
     -85.9481,     -2.93223
     -85.5751,     -1.26962
     -85.2021,     0.751270
     -84.8290,      2.46249
     -84.4560,      3.21780
     -84.0830,      2.71845
     -83.7100,      1.14318
     -83.3369,    -0.992464
     -82.9639,     -3.13858
     -82.5909,     -4.98161
     -82.2178,     -6.51254
     -81.8448,     -7.85293
     -81.4718,     -9.00588
     -81.0988,     -9.78289
     -80.7257,     -9.96273
     -80.3527,     -9.46297
     -79.9797,     -8.31871
     -79.6067,     -6.57839
     -79.2336,     -4.35935
     -78.8606,     -1.99859
     -78.4876,  -0.00731851
     -78.1145,      1.18482
     -77.7415,      1.41727
     -77.3685,     0.815030
     -76.9955,    -0.238108
     -76.6224,     -1.16964
     -76.2494,     -1.44585
     -75.8764,    -0.874895
     -75.5033,     0.261629
     -75.1303,      1.38053
     -74.7573,      1.96032
     -74.3843,      1.81009
     -74.0112,      1.03614
     -73.6382,    -0.164368
     -73.2652,     -1.57571
     -72.8922,     -2.86344
     -72.5191,     -3.58228
     -72.1461,     -3.44926
     -71.7731,     -2.63316
     -71.4000,     -1.68510
     -71.0270,     -1.10612
     -70.6540,    -0.990781
     -70.2810,     -1.12517
     -69.9079,     -1.35723
     -69.5349,     -1.71870
     -69.1619,     -2.17914
     -68.7888,     -2.46936
     -68.4158,     -2.27322
     -68.0428,     -1.55108
     -67.6698,    -0.648253
     -67.2967,    -0.107985
     -66.9237,    -0.300484
     -66.5507,     -1.11701
     -66.1777,     -2.02629
     -65.8046,     -2.47648
     -65.4316,     -2.24046
     -65.0586,     -1.43739
     -64.6855,    -0.391512
     -64.3125,     0.487706
     -63.9395,     0.886357
     -63.5665,     0.806953
     -63.1934,     0.531052
     -62.8204,     0.286538
     -62.4474,    0.0514772
     -62.0744,    -0.270946
     -61.7013,    -0.614729
     -61.3283,    -0.742301
     -60.9553,    -0.386582
     -60.5822,     0.585447
     -60.2092,      2.02189
     -59.8362,      3.47024
     -59.4632,      4.41001
     -59.0901,      4.58336
     -58.7171,      4.12733
     -58.3441,      3.41153
     -57.9710,      2.76561
     -57.5980,      2.31401
     -57.2250,      1.97288
     -56.8520,      1.57507
     -56.4789,      1.06115
     -56.1059,     0.573655
     -55.7329,     0.331725
     -55.3599,     0.432266
     -54.9868,     0.805093
     -54.6138,      1.30119
     -54.2408,      1.73904
     -53.8677,      1.89596
     -53.4947,      1.58910
     -53.1217,     0.825369
     -52.7487,    -0.204099
     -52.3756,     -1.29967
     -52.0026,     -2.33660
     -51.6296,     -3.19958
     -51.2565,     -3.79527
     -50.8835,     -4.17442
     -50.5105,     -4.51929
     -50.1375,     -4.91994
     -49.7644,     -5.19779
     -49.3914,     -5.01432
     -49.0184,     -4.17697
     -48.6454,     -2.86016
     -48.2723,     -1.55503
     -47.8993,    -0.769500
     -47.5263,    -0.696983
     -47.1532,     -1.13461
     -46.7802,     -1.70267
     -46.4072,     -2.11202
     -46.0342,     -2.25268
     -45.6611,     -2.12977
     -45.2881,     -1.77442
     -44.9151,     -1.20206
     -44.5420,    -0.428501
     -44.1690,     0.481113
     -43.7960,      1.34543
     -43.4230,      1.83217
     -43.0499,      1.59680
     -42.6769,     0.580214
     -42.3039,    -0.866135
     -41.9309,     -2.22532
     -41.5578,     -3.14401
     -41.1848,     -3.52901
     -40.8118,     -3.49412
     -40.4387,     -3.31616
     -40.0657,     -3.31351
     -39.6927,     -3.59662
     -39.3197,     -3.91628
     -38.9466,     -3.82574
     -38.5736,     -3.02782
     -38.2006,     -1.56080
     -37.8275,     0.308847
     -37.4545,      2.26327
     -37.0815,      3.94836
     -36.7085,      4.91735
     -36.3354,      4.76497
     -35.9624,      3.49106
     -35.5894,      1.76327
     -35.2164,     0.660434
     -34.8433,     0.895880
     -34.4703,      2.15811
     -34.0973,      3.29721
     -33.7242,      3.28051
     -33.3512,      2.00393
     -32.9782,     0.241465
     -32.6052,     -1.07209
     -32.2321,     -1.51763
     -31.8591,     -1.31314
     -31.4861,    -0.896492
     -31.1130,    -0.465771
     -30.7400,    0.0633596
     -30.3670,     0.778156
     -29.9940,      1.56886
     -29.6209,      2.14551
     -29.2479,      2.16792
     -28.8749,      1.46324
     -28.5019,     0.277844
     -28.1288,    -0.747127
     -27.7558,     -1.06930
     -27.3828,    -0.751885
     -27.0097,    -0.346607
     -26.6367,    -0.304802
     -26.2637,    -0.653658
     -25.8907,     -1.17773
     -25.5176,     -1.68950
     -25.1446,     -2.09388
     -24.7716,     -2.34760
     -24.3986,     -2.42548
     -24.0255,     -2.28446
     -23.6525,     -1.86995
     -23.2795,     -1.20481
     -22.9064,    -0.438578
     -22.5334,     0.241401
     -22.1604,     0.708116
     -21.7874,     0.904104
     -21.4143,     0.884349
     -21.0413,     0.896768
     -20.6683,      1.25435
     -20.2952,      1.99228
     -19.9222,      2.72793
     -19.5492,      2.99107
     -19.1762,      2.72028
     -18.8031,      2.39982
     -18.4301,      2.67026
     -18.0571,      3.76742
     -17.6840,      5.33138
     -17.3110,      6.77110
     -16.9380,      7.78713
     -16.5650,      8.49336
     -16.1919,      9.06825
     -15.8189,      9.44485
     -15.4459,      9.47245
     -15.0729,      9.29990
     -14.6998,      9.38798
     -14.3268,      10.0821
     -13.9538,      11.2741
     -13.5807,      12.5041
     -13.2077,      13.3141
     -12.8347,      13.5070
     -12.4617,      13.1771
     -12.0886,      12.5793
     -11.7156,      11.9870
     -11.3426,      11.6362
     -10.9696,      11.7041
     -10.5965,      12.2308
     -10.2235,      13.0489
     -9.85047,      13.8675
     -9.47744,      14.4894
     -9.10441,      14.9759
     -8.73139,      15.6093
     -8.35836,      16.6567
     -7.98533,      18.1031
     -7.61230,      19.6129
     -7.23927,      20.8003
     -6.86625,      21.5510
     -6.49322,      22.0652
     -6.12019,      22.6165
     -5.74716,      23.3250
     -5.37414,      24.1641
     -5.00111,      25.0935
     -4.62808,      26.1032
     -4.25505,      27.1470
     -3.88202,      28.0983
     -3.50900,      28.7964
     -3.13597,      29.1736
     -2.76294,      29.3837
     -2.38991,      29.7709
     -2.01689,      30.5996
     -1.64386,      31.7347
     -1.27083,      32.6103
    -0.897802,      32.6084
    -0.524775,      31.5761
    -0.151747,      30.0212
     0.221281,      28.8001
     0.594309,      28.5886
     0.967336,      29.5783
      1.34036,      31.5441
      1.71339,      34.0906
      2.08642,      36.8266
      2.45945,      39.3658
      2.83247,      41.2726
      3.20550,      42.1710
      3.57853,      42.0189
      3.95156,      41.2293
      4.32459,      40.3981
      4.69761,      39.8946
      5.07064,      39.7390
      5.44367,      39.7789
      5.81670,      39.8681
      6.18972,      39.9474
      6.56275,      40.1119
      6.93578,      40.5915
      7.30881,      41.4941
      7.68184,      42.5011
      8.05486,      42.9552
      8.42789,      42.3955
      8.80092,      41.0104
      9.17395,      39.5076
      9.54697,      38.5267
      9.92000,      38.2186
      10.2930,      38.3484
      10.6661,      38.5967
      11.0391,      38.6577
      11.4121,      38.2820
      11.7851,      37.4889
      12.1582,      36.6377
      12.5312,      36.0592
      12.9042,      35.6569
      13.2773,      35.0410
      13.6503,      34.0169
      14.0233,      32.8059
      14.3963,      31.8111
      14.7694,      31.2694
      15.1424,      31.0996
      15.5154,      30.9782
      15.8884,      30.5664
      16.2615,      29.7788
      16.6345,      28.8824
      17.0075,      28.2643
      17.3806,      28.0293
      17.7536,      27.8148
      18.1266,      27.0693
      18.4996,      25.6228
      18.8727,      24.0096
      19.2457,      23.1241
      19.6187,      23.4870
      19.9918,      24.8595
      20.3648,      26.5147
      20.7378,      27.7571
      21.1108,      28.2160
      21.4839,      27.8884
      21.8569,      27.1047
      22.2299,      26.3935
      22.6029,      26.1629
      22.9760,      26.4045
      23.3490,      26.7586
      23.7220,      26.9078
      24.0951,      26.8504
      24.4681,      26.7535
      24.8411,      26.6095
      25.2141,      26.1483
      25.5872,      25.1232
      25.9602,      23.6304
      26.3332,      22.0808
      26.7063,      20.8508
      27.0793,      19.9955
      27.4523,      19.3165
      27.8253,      18.6700
      28.1984,      18.1250
      28.5714,      17.7479
      28.9444,      17.3001
      29.3174,      16.3496
      29.6905,      14.7794
      30.0635,      13.0692
      30.4365,      11.9604
      30.8096,      11.8631
      31.1826,      12.5583
      31.5556,      13.3578
      31.9286,      13.5648
      32.3017,      12.9313
      32.6747,      11.7665
      33.0477,      10.6095
      33.4207,      9.79586
      33.7938,      9.28679
      34.1668,      8.79530
      34.5398,      8.03876
      34.9129,      6.98174
      35.2859,      5.90362
      35.6589,      5.15614
      36.0319,      4.82070
      36.4050,      4.68312
      36.7780,      4.55080
      37.1510,      4.49492
      37.5241,      4.76636
      37.8971,      5.53503
      38.2701,      6.68279
      38.6431,      7.79245
      39.0162,      8.38922
      39.3892,      8.27336
      39.7622,      7.63113
      40.1353,      6.82310
      40.5083,      6.08266
      40.8813,      5.41329
      41.2543,      4.74724
      41.6274,      4.14592
      42.0004,      3.76964
      42.3734,      3.66600
      42.7464,      3.70262
      43.1195,      3.73352
      43.4925,      3.73745
      43.8655,      3.78381
      44.2386,      3.96478
      44.6116,      4.37419
      44.9846,      5.04778
      45.3576,      5.84595
      45.7307,      6.37937
      46.1037,      6.08773
      46.4767,      4.56275
      46.8497,      2.03155
      47.2228,    -0.460045
      47.5958,     -1.60168
      47.9688,    -0.786307
      48.3419,      1.43270
      48.7149,      3.82762
      49.0879,      5.38046
      49.4609,      5.78787
      49.8340,      5.38306
      50.2070,      4.77620
      50.5800,      4.51510
      50.9531,      4.84484
      51.3261,      5.57847
      51.6991,      6.17905
      52.0721,      6.08880
      52.4452,      5.07878
      52.8182,      3.32351
      53.1912,      1.19990
      53.5642,    -0.916303
      53.9373,     -2.69368
      54.3103,     -3.85100
      54.6833,     -4.24904
      55.0564,     -3.94835
      55.4294,     -3.11173
      55.8024,     -1.88739
      56.1754,    -0.432804
      56.5485,      1.00943
      56.9215,      2.14172
      57.2945,      2.73525
      57.6676,      2.74485
      58.0406,      2.35662
      58.4136,      1.93839
      58.7866,      1.87229
      59.1597,      2.31440
      59.5327,      3.03210
      59.9057,      3.49577
      60.2787,      3.23108
      60.6518,      2.18199
      61.0248,     0.784906
      61.3978,    -0.305835
      61.7709,    -0.604943
      62.1439,  -0.00236718
      62.5169,      1.27350
      62.8899,      2.77446
      63.2630,      3.93525
      63.6360,      4.24306
      64.0090,      3.51543
      64.3820,      2.09537
      64.7551,     0.700822
      65.1281,   -0.0476198
      65.5011,   -0.0186080
      65.8742,     0.494581
      66.2472,      1.17194
      66.6202,      1.89632
      66.9932,      2.59932
      67.3663,      3.06507
