# Freq.: 9.8120000e+09Hz; t_int: 167.05945h; (l,b) = (9.4053176, -0.090866256)
     -240.100,      0.00000
     -239.727,      0.00000
     -239.354,      0.00000
     -238.981,      0.00000
     -238.608,      0.00000
     -238.235,      0.00000
     -237.862,      0.00000
     -237.489,      0.00000
     -237.116,      0.00000
     -236.743,      0.00000
     -236.370,      0.00000
     -235.997,    0.0588058
     -235.624,     0.177013
     -235.251,     0.746815
     -234.878,      1.56980
     -234.505,      2.51173
     -234.132,      3.53899
     -233.759,      4.61392
     -233.387,      5.56324
     -233.014,      6.05059
     -232.641,      5.74969
     -232.268,      4.63901
     -231.895,      3.10616
     -231.522,      1.67250
     -231.149,     0.616664
     -230.776,   -0.0846080
     -230.403,    -0.516788
     -230.030,    -0.662778
     -229.657,    -0.486900
     -229.284,   -0.0679054
     -228.911,     0.430108
     -228.538,     0.892998
     -228.165,      1.33757
     -227.792,      1.86813
     -227.419,      2.49472
     -227.046,      2.94095
     -226.673,      2.75225
     -226.300,      1.72710
     -225.927,     0.160125
     -225.554,     -1.44014
     -225.181,     -2.78020
     -224.808,     -3.84611
     -224.435,     -4.65118
     -224.062,     -5.07057
     -223.689,     -4.94391
     -223.316,     -4.25865
     -222.944,     -3.19274
     -222.571,     -2.04496
     -222.198,     -1.17051
     -221.825,    -0.876218
     -221.452,     -1.21035
     -221.079,     -1.82437
     -220.706,     -2.17177
     -220.333,     -1.97330
     -219.960,     -1.47197
     -219.587,     -1.13126
     -219.214,     -1.09180
     -218.841,     -1.05104
     -218.468,    -0.706977
     -218.095,    -0.184009
     -217.722,    0.0776624
     -217.349,    -0.213277
     -216.976,    -0.925513
     -216.603,     -1.64331
     -216.230,     -1.98622
     -215.857,     -1.79988
     -215.484,     -1.13625
     -215.111,    -0.169329
     -214.738,     0.810224
     -214.365,      1.39697
     -213.992,      1.24722
     -213.619,     0.362545
     -213.247,    -0.827442
     -212.874,     -1.72641
     -212.501,     -1.98428
     -212.128,     -1.74028
     -211.755,     -1.48155
     -211.382,     -1.60875
     -211.009,     -2.12970
     -210.636,     -2.79248
     -210.263,     -3.42478
     -209.890,     -4.00620
     -209.517,     -4.43423
     -209.144,     -4.42307
     -208.771,     -3.79071
     -208.398,     -2.79966
     -208.025,     -2.07540
     -207.652,     -2.12532
     -207.279,     -2.92450
     -206.906,     -3.93392
     -206.533,     -4.51003
     -206.160,     -4.35866
     -205.787,     -3.67066
     -205.414,     -2.85416
     -205.041,     -2.15046
     -204.668,     -1.51977
     -204.295,    -0.852129
     -203.922,    -0.182445
     -203.549,     0.339469
     -203.177,     0.616343
     -202.804,     0.710242
     -202.431,     0.847937
     -202.058,      1.30778
     -201.685,      2.17803
     -201.312,      3.19015
     -200.939,      3.88049
     -200.566,      3.96611
     -200.193,      3.53283
     -199.820,      2.86173
     -199.447,      2.14957
     -199.074,      1.44689
     -198.701,     0.795331
     -198.328,     0.299505
     -197.955,    0.0368414
     -197.582,   -0.0328241
     -197.209,   -0.0186148
     -196.836,    0.0259547
     -196.463,     0.126748
     -196.090,     0.285819
     -195.717,     0.470524
     -195.344,     0.754920
     -194.971,      1.27780
     -194.598,      1.90919
     -194.225,      2.13485
     -193.852,      1.48453
     -193.479,    0.0363501
     -193.107,     -1.57027
     -192.734,     -2.57389
     -192.361,     -2.58448
     -191.988,     -1.78465
     -191.615,    -0.704459
     -191.242,     0.205424
     -190.869,     0.789455
     -190.496,      1.08013
     -190.123,      1.13464
     -189.750,      1.02914
     -189.377,     0.906408
     -189.004,     0.865697
     -188.631,     0.743430
     -188.258,     0.116309
     -187.885,     -1.29874
     -187.512,     -3.20411
     -187.139,     -4.80591
     -186.766,     -5.44485
     -186.393,     -5.09805
     -186.020,     -4.20578
     -185.647,     -3.13003
     -185.274,     -1.94100
     -184.901,    -0.656210
     -184.528,     0.544386
     -184.155,      1.42885
     -183.782,      1.92555
     -183.409,      2.11440
     -183.037,      2.05238
     -182.664,      1.74348
     -182.291,      1.29589
     -181.918,     0.952143
     -181.545,     0.849804
     -181.172,     0.815024
     -180.799,     0.482852
     -180.426,    -0.377991
     -180.053,     -1.64138
     -179.680,     -2.84680
     -179.307,     -3.46836
     -178.934,     -3.28931
     -178.561,     -2.55574
     -178.188,     -1.72008
     -177.815,     -1.04481
     -177.442,    -0.476486
     -177.069,     0.152755
     -176.696,     0.858798
     -176.323,      1.43993
     -175.950,      1.66281
     -175.577,      1.47901
     -175.204,      1.02301
     -174.831,     0.445114
     -174.458,    -0.165842
     -174.085,    -0.693597
     -173.712,    -0.925247
     -173.339,    -0.684820
     -172.967,   -0.0716973
     -172.594,     0.521929
     -172.221,     0.726215
     -171.848,     0.488073
     -171.475,  -0.00694432
     -171.102,    -0.608860
     -170.729,     -1.29027
     -170.356,     -2.04712
     -169.983,     -2.83168
     -169.610,     -3.52864
     -169.237,     -3.92720
     -168.864,     -3.78421
     -168.491,     -2.98653
     -168.118,     -1.64675
     -167.745,   -0.0423134
     -167.372,      1.53103
     -166.999,      2.88207
     -166.626,      3.93726
     -166.253,      4.63576
     -165.880,      4.84664
     -165.507,      4.47671
     -165.134,      3.68308
     -164.761,      2.87090
     -164.388,      2.37862
     -164.015,      2.18349
     -163.642,      1.94437
     -163.269,      1.28857
     -162.897,    0.0590044
     -162.524,     -1.60655
     -162.151,     -3.34279
     -161.778,     -4.71756
     -161.405,     -5.39645
     -161.032,     -5.21475
     -160.659,     -4.16711
     -160.286,     -2.41184
     -159.913,    -0.307403
     -159.540,      1.64201
     -159.167,      3.02289
     -158.794,      3.77434
     -158.421,      4.16375
     -158.048,      4.42116
     -157.675,      4.42264
     -157.302,      3.81573
     -156.929,      2.44222
     -156.556,     0.565352
     -156.183,     -1.28382
     -155.810,     -2.59544
     -155.437,     -3.06764
     -155.064,     -2.67597
     -154.691,     -1.65984
     -154.318,    -0.404787
     -153.945,     0.742401
     -153.572,      1.58640
     -153.199,      2.06451
     -152.827,      2.20133
     -152.454,      2.10284
     -152.081,      1.93073
     -151.708,      1.83312
     -151.335,      1.86570
     -150.962,      1.90659
     -150.589,      1.63018
     -150.216,     0.698222
     -149.843,    -0.873279
     -149.470,     -2.53809
     -149.097,     -3.50414
     -148.724,     -3.25786
     -148.351,     -1.85814
     -147.978,     0.194265
     -147.605,      2.28604
     -147.232,      3.90387
     -146.859,      4.69989
     -146.486,      4.59514
     -146.113,      3.89221
     -145.740,      3.12577
     -145.367,      2.66170
     -144.994,      2.46538
     -144.621,      2.26715
     -144.248,      1.85320
     -143.875,      1.18478
     -143.502,     0.374004
     -143.129,    -0.391218
     -142.757,    -0.998011
     -142.384,     -1.54804
     -142.011,     -2.25605
     -141.638,     -3.13230
     -141.265,     -3.83849
     -140.892,     -3.94702
     -140.519,     -3.30062
     -140.146,     -2.06043
     -139.773,    -0.503208
     -139.400,      1.08218
     -139.027,      2.36215
     -138.654,      3.06629
     -138.281,      3.26173
     -137.908,      3.42487
     -137.535,      4.07638
     -137.162,      5.27795
     -136.789,      6.51511
     -136.416,      7.10465
     -136.043,      6.70355
     -135.670,      5.43500
     -135.297,      3.65362
     -134.924,      1.73737
     -134.551,    0.0544292
     -134.178,     -1.09070
     -133.805,     -1.60943
     -133.432,     -1.68345
     -133.059,     -1.59952
     -132.687,     -1.51642
     -132.314,     -1.39648
     -131.941,     -1.16539
     -131.568,    -0.926584
     -131.195,    -0.973760
     -130.822,     -1.52458
     -130.449,     -2.40107
     -130.076,     -3.03234
     -129.703,     -2.90431
     -129.330,     -2.04952
     -128.957,     -1.00572
     -128.584,    -0.251723
     -128.211,     0.215011
     -127.838,     0.674590
     -127.465,      1.17232
     -127.092,      1.35735
     -126.719,     0.818195
     -126.346,    -0.507464
     -125.973,     -2.20419
     -125.600,     -3.55119
     -125.227,     -3.91390
     -124.854,     -3.18902
     -124.481,     -1.94348
     -124.108,     -1.02524
     -123.735,    -0.946785
     -123.362,     -1.59425
     -122.989,     -2.44191
     -122.617,     -2.94821
     -122.244,     -2.81581
     -121.871,     -2.12429
     -121.498,     -1.33638
     -121.125,    -0.997471
     -120.752,     -1.23686
     -120.379,     -1.60056
     -120.006,     -1.48555
     -119.633,    -0.744767
     -119.260,     0.183397
     -118.887,     0.751599
     -118.514,     0.863360
     -118.141,     0.909811
     -117.768,      1.28248
     -117.395,      1.96817
     -117.022,      2.67580
     -116.649,      3.23574
     -116.276,      3.72563
     -115.903,      4.23978
     -115.530,      4.68154
     -115.157,      4.82560
     -114.784,      4.53528
     -114.411,      3.92935
     -114.038,      3.37467
     -113.665,      3.24614
     -113.292,      3.58520
     -112.919,      4.00607
     -112.547,      4.00530
     -112.174,      3.33963
     -111.801,      2.08491
     -111.428,     0.464357
     -111.055,     -1.23794
     -110.682,     -2.65261
     -110.309,     -3.38458
     -109.936,     -3.20428
     -109.563,     -2.23122
     -109.190,    -0.950919
     -108.817,    0.0179998
     -108.444,     0.297240
     -108.071,   -0.0400804
     -107.698,    -0.598945
     -107.325,    -0.973758
     -106.952,    -0.980755
     -106.579,    -0.687087
     -106.206,    -0.241363
     -105.833,     0.340374
     -105.460,      1.18957
     -105.087,      2.37622
     -104.714,      3.74357
     -104.341,      4.97511
     -103.968,      5.78871
     -103.595,      6.06071
     -103.222,      5.81685
     -102.849,      5.18759
     -102.477,      4.42738
     -102.104,      3.91166
     -101.731,      3.97067
     -101.358,      4.66602
     -100.985,      5.75573
     -100.612,      6.86786
     -100.239,      7.68312
     -99.8658,      8.00684
     -99.4928,      7.76947
     -99.1199,      7.01342
     -98.7469,      5.89120
     -98.3739,      4.68255
     -98.0010,      3.76452
     -97.6280,      3.42944
     -97.2551,      3.61437
     -96.8821,      3.82676
     -96.5091,      3.45423
     -96.1362,      2.24885
     -95.7632,     0.546665
     -95.3902,    -0.970849
     -95.0173,     -1.72961
     -94.6443,     -1.55959
     -94.2714,    -0.694657
     -93.8984,     0.438422
     -93.5254,      1.48035
     -93.1525,      2.26694
     -92.7795,      2.74164
     -92.4065,      2.82289
     -92.0336,      2.45624
     -91.6606,      1.79498
     -91.2877,      1.24020
     -90.9147,      1.20652
     -90.5417,      1.76096
     -90.1688,      2.48499
     -89.7958,      2.80492
     -89.4228,      2.52751
     -89.0499,      1.99777
     -88.6769,      1.72326
     -88.3039,      1.91275
     -87.9310,      2.35451
     -87.5580,      2.62144
     -87.1851,      2.37232
     -86.8121,      1.59779
     -86.4391,     0.715044
     -86.0662,     0.360700
     -85.6932,     0.877418
     -85.3202,      1.90895
     -84.9473,      2.61559
     -84.5743,      2.40968
     -84.2014,      1.47867
     -83.8284,     0.555488
     -83.4554,     0.193112
     -83.0825,     0.296612
     -82.7095,     0.347577
     -82.3365,  -0.00469240
     -81.9636,    -0.646011
     -81.5906,     -1.21240
     -81.2177,     -1.44981
     -80.8447,     -1.34395
     -80.4717,     -1.05110
     -80.0988,    -0.810004
     -79.7258,    -0.835568
     -79.3528,     -1.17156
     -78.9799,     -1.63883
     -78.6069,     -1.95775
     -78.2339,     -1.92518
     -77.8610,     -1.52239
     -77.4880,    -0.936392
     -77.1151,    -0.487903
     -76.7421,    -0.455043
     -76.3691,    -0.872042
     -75.9962,     -1.47942
     -75.6232,     -1.92349
     -75.2502,     -2.04820
     -74.8773,     -1.98251
     -74.5043,     -1.91953
     -74.1314,     -1.82671
     -73.7584,     -1.42080
     -73.3854,    -0.456323
     -73.0125,     0.962505
     -72.6395,      2.36259
     -72.2665,      3.22313
     -71.8936,      3.36582
     -71.5206,      3.04762
     -71.1477,      2.68647
     -70.7747,      2.52960
     -70.4017,      2.53924
     -70.0288,      2.48807
     -69.6558,      2.17104
     -69.2828,      1.60563
     -68.9099,     0.990670
     -68.5369,     0.424454
     -68.1639,    -0.212603
     -67.7910,     -1.00741
     -67.4180,     -1.77030
     -67.0451,     -2.13282
     -66.6721,     -1.80674
     -66.2991,    -0.736484
     -65.9262,     0.835948
     -65.5532,      2.36467
     -65.1803,      3.19020
     -64.8073,      2.91394
     -64.4343,      1.63715
     -64.0614,    -0.177541
     -63.6884,     -2.04245
     -63.3154,     -3.62262
     -62.9425,     -4.68872
     -62.5695,     -5.08052
     -62.1965,     -4.80988
     -61.8236,     -4.12755
     -61.4506,     -3.37379
     -61.0777,     -2.74372
     -60.7047,     -2.23056
     -60.3317,     -1.77554
     -59.9588,     -1.41008
     -59.5858,     -1.21782
     -59.2128,     -1.18293
     -58.8399,     -1.14714
     -58.4669,    -0.972078
     -58.0940,    -0.715697
     -57.7210,    -0.566970
     -57.3480,    -0.574930
     -56.9751,    -0.512506
     -56.6021,    -0.107647
     -56.2291,     0.591032
     -55.8562,      1.17321
     -55.4832,      1.22472
     -55.1103,     0.657038
     -54.7373,    -0.326446
     -54.3643,     -1.44585
     -53.9914,     -2.40975
     -53.6184,     -2.87819
     -53.2454,     -2.61521
     -52.8725,     -1.79577
     -52.4995,     -1.02500
     -52.1265,    -0.854820
     -51.7536,     -1.25684
     -51.3806,     -1.67620
     -51.0077,     -1.62007
     -50.6347,     -1.10704
     -50.2617,    -0.536554
     -49.8888,    -0.236419
     -49.5158,    -0.215313
     -49.1428,    -0.292959
     -48.7699,    -0.352326
     -48.3969,    -0.428001
     -48.0240,    -0.615084
     -47.6510,    -0.945461
     -47.2780,     -1.31149
     -46.9051,     -1.47473
     -46.5321,     -1.22447
     -46.1591,    -0.612874
     -45.7862,   0.00161636
     -45.4132,     0.245162
     -45.0403,    0.0988924
     -44.6673,   -0.0702283
     -44.2943,     0.111424
     -43.9214,     0.643967
     -43.5484,      1.17540
     -43.1754,      1.34742
     -42.8025,      1.09186
     -42.4295,     0.661050
     -42.0566,     0.419607
     -41.6836,     0.550112
     -41.3106,     0.901395
     -40.9377,      1.12605
     -40.5647,     0.979149
     -40.1917,     0.500484
     -39.8188,   -0.0554791
     -39.4458,    -0.453409
     -39.0728,    -0.669491
     -38.6999,    -0.880359
     -38.3269,     -1.28321
     -37.9540,     -1.92830
     -37.5810,     -2.66846
     -37.2080,     -3.22774
     -36.8351,     -3.39130
     -36.4621,     -3.20368
     -36.0891,     -2.91599
     -35.7162,     -2.67126
     -35.3432,     -2.33773
     -34.9703,     -1.73501
     -34.5973,    -0.916174
     -34.2243,    -0.143712
     -33.8514,     0.301797
     -33.4784,     0.233452
     -33.1054,    -0.370654
     -32.7325,     -1.29359
     -32.3595,     -2.11935
     -31.9866,     -2.40608
     -31.6136,     -1.89966
     -31.2406,    -0.717659
     -30.8677,     0.643618
     -30.4947,      1.61021
     -30.1217,      1.91006
     -29.7488,      1.62351
     -29.3758,     0.928830
     -29.0029,   -0.0456841
     -28.6299,     -1.12387
     -28.2569,     -2.00649
     -27.8840,     -2.39125
     -27.5110,     -2.13484
     -27.1380,     -1.27316
     -26.7651,    0.0620192
     -26.3921,      1.68370
     -26.0191,      3.31459
     -25.6462,      4.57300
     -25.2732,      5.07132
     -24.9003,      4.62035
     -24.5273,      3.40390
     -24.1543,      1.92693
     -23.7814,     0.697843
     -23.4084,   -0.0983177
     -23.0354,    -0.620817
     -22.6625,     -1.09413
     -22.2895,     -1.54634
     -21.9166,     -1.81692
     -21.5436,     -1.76485
     -21.1706,     -1.40795
     -20.7977,    -0.872349
     -20.4247,    -0.300274
     -20.0517,     0.156682
     -19.6788,     0.349557
     -19.3058,     0.238789
     -18.9329,   -0.0145755
     -18.5599,    -0.129732
     -18.1869,    0.0729111
     -17.8140,     0.520246
     -17.4410,     0.958488
     -17.0680,      1.17017
     -16.6951,      1.13602
     -16.3221,      1.05446
     -15.9492,      1.25361
     -15.5762,      2.01993
     -15.2032,      3.38453
     -14.8303,      5.00286
     -14.4573,      6.25059
     -14.0843,      6.52080
     -13.7114,      5.59066
     -13.3384,      3.84565
     -12.9654,      2.13277
     -12.5925,      1.23903
     -12.2195,      1.37339
     -11.8466,      2.09848
     -11.4736,      2.74257
     -11.1006,      2.89711
     -10.7277,      2.60379
     -10.3547,      2.14632
     -9.98175,      1.68978
     -9.60878,      1.14487
     -9.23582,     0.397508
     -8.86286,    -0.394645
     -8.48989,    -0.825175
     -8.11693,    -0.568371
     -7.74397,     0.332255
     -7.37101,      1.46256
     -6.99804,      2.28442
     -6.62508,      2.43966
     -6.25212,      1.92321
     -5.87915,      1.03986
     -5.50619,     0.213094
     -5.13323,    -0.221109
     -4.76027,    -0.180951
     -4.38730,    0.0606592
     -4.01434,   -0.0252084
     -3.64138,    -0.849083
     -3.26841,     -2.31588
     -2.89545,     -3.81835
     -2.52249,     -4.63771
     -2.14953,     -4.41003
     -1.77656,     -3.34551
     -1.40360,     -2.08704
     -1.03064,     -1.28930
    -0.657674,     -1.21256
    -0.284711,     -1.63883
    0.0882515,     -2.11778
     0.461214,     -2.28719
     0.834177,     -2.04734
      1.20714,     -1.53441
      1.58010,    -0.968535
      1.95307,    -0.539279
      2.32603,    -0.428169
      2.69899,    -0.839797
      3.07195,     -1.85177
      3.44492,     -3.19664
      3.81788,     -4.32397
      4.19084,     -4.78891
      4.56381,     -4.55411
      4.93677,     -3.89030
      5.30973,     -3.07190
      5.68269,     -2.22902
      6.05566,     -1.41717
      6.42862,    -0.726352
      6.80158,    -0.287619
      7.17455,    -0.159574
      7.54751,    -0.190070
      7.92047,   -0.0185017
      8.29343,     0.689510
      8.66640,      1.91494
      9.03936,      3.16777
      9.41232,      3.75413
      9.78529,      3.28232
      10.1582,      2.01462
      10.5312,     0.717515
      10.9042,    0.0775006
      11.2771,     0.199137
      11.6501,     0.637456
      12.0231,     0.857549
      12.3960,     0.645030
      12.7690,     0.177166
      13.1420,    -0.175156
      13.5149,    -0.118069
      13.8879,     0.380706
      14.2608,      1.09602
      14.6338,      1.72313
      15.0068,      2.08124
      15.3797,      2.18610
      15.7527,      2.15722
      16.1257,      2.08648
      16.4986,      2.02564
      16.8716,      2.06778
      17.2445,      2.35660
      17.6175,      2.98096
      17.9905,      3.87578
      18.3634,      4.82530
      18.7364,      5.56065
      19.1094,      5.87800
      19.4823,      5.69581
      19.8553,      5.05813
      20.2282,      4.14395
      20.6012,      3.24328
      20.9742,      2.61988
      21.3471,      2.34662
      21.7201,      2.30293
      22.0931,      2.34014
      22.4660,      2.41010
      22.8390,      2.53319
      23.2119,      2.70422
      23.5849,      2.87039
      23.9579,      2.98179
      24.3308,      3.02346
      24.7038,      2.98547
