# Freq.: 9.8120000e+09Hz; t_int: 166.68057h; (l,b) = (32.775123, -0.047854921)
     -240.174,      0.00000
     -239.801,      0.00000
     -239.428,      0.00000
     -239.055,      0.00000
     -238.682,      0.00000
     -238.309,      0.00000
     -237.936,      0.00000
     -237.563,      0.00000
     -237.190,      0.00000
     -236.817,      0.00000
     -236.444,      0.00000
     -236.071,     0.461180
     -235.698,     0.381561
     -235.325,    -0.243669
     -234.952,     -1.02371
     -234.579,     -1.56935
     -234.206,     -1.80931
     -233.833,     -1.94756
     -233.460,     -2.15325
     -233.088,     -2.36904
     -232.715,     -2.41081
     -232.342,     -2.16767
     -231.969,     -1.67566
     -231.596,     -1.05263
     -231.223,    -0.396535
     -230.850,     0.287068
     -230.477,      1.07841
     -230.104,      2.01855
     -229.731,      2.95880
     -229.358,      3.56761
     -228.985,      3.54142
     -228.612,      2.85509
     -228.239,      1.81345
     -227.866,     0.818303
     -227.493,    0.0658262
     -227.120,    -0.523967
     -226.747,     -1.12547
     -226.374,     -1.79619
     -226.001,     -2.39588
     -225.628,     -2.66979
     -225.255,     -2.45057
     -224.882,     -1.80452
     -224.509,    -0.951206
     -224.136,   -0.0494747
     -223.763,     0.886006
     -223.390,      1.86897
     -223.017,      2.82116
     -222.644,      3.59860
     -222.271,      4.09484
     -221.898,      4.29110
     -221.525,      4.23290
     -221.152,      3.98001
     -220.779,      3.55013
     -220.406,      2.87692
     -220.033,      1.84763
     -219.660,     0.446490
     -219.287,     -1.09530
     -218.914,     -2.29894
     -218.541,     -2.65634
     -218.168,     -1.95845
     -217.795,    -0.493646
     -217.422,      1.06646
     -217.049,      2.05267
     -216.676,      2.19416
     -216.304,      1.72582
     -215.931,      1.14692
     -215.558,     0.883511
     -215.185,      1.11499
     -214.812,      1.76426
     -214.439,      2.53989
     -214.066,      3.04141
     -213.693,      2.97603
     -213.320,      2.38191
     -212.947,      1.64779
     -212.574,      1.25316
     -212.201,      1.42335
     -211.828,      1.98296
     -211.455,      2.49125
     -211.082,      2.52715
     -210.709,      1.93967
     -210.336,     0.911798
     -209.963,    -0.187257
     -209.590,     -1.01058
     -209.217,     -1.35251
     -208.844,     -1.17671
     -208.471,    -0.618011
     -208.098,    0.0260043
     -207.725,     0.373121
     -207.352,     0.157823
     -206.979,    -0.557328
     -206.606,     -1.38960
     -206.233,     -1.89416
     -205.860,     -1.82442
     -205.487,     -1.19907
     -205.114,    -0.249697
     -204.741,     0.629899
     -204.368,     0.996025
     -203.995,     0.603725
     -203.622,    -0.368110
     -203.249,     -1.35413
     -202.876,     -1.70890
     -202.503,     -1.07588
     -202.130,     0.383249
     -201.757,      2.02430
     -201.384,      3.04361
     -201.011,      2.93130
     -200.638,      1.77161
     -200.265,     0.174381
     -199.893,     -1.13944
     -199.520,     -1.78585
     -199.147,     -1.82808
     -198.774,     -1.52530
     -198.401,     -1.06391
     -198.028,    -0.523099
     -197.655,    0.0194593
     -197.282,     0.433696
     -196.909,     0.572357
     -196.536,     0.340885
     -196.163,    -0.234302
     -195.790,    -0.986043
     -195.417,     -1.68806
     -195.044,     -2.19913
     -194.671,     -2.54241
     -194.298,     -2.84223
     -193.925,     -3.18291
     -193.552,     -3.53024
     -193.179,     -3.76600
     -192.806,     -3.74580
     -192.433,     -3.31777
     -192.060,     -2.36753
     -191.687,    -0.919579
     -191.314,     0.803015
     -190.941,      2.42853
     -190.568,      3.55696
     -190.195,      3.89756
     -189.822,      3.38114
     -189.449,      2.18657
     -189.076,     0.653691
     -188.703,    -0.852108
     -188.330,     -2.02648
     -187.957,     -2.67526
     -187.584,     -2.80839
     -187.211,     -2.69866
     -186.838,     -2.70529
     -186.465,     -2.94237
     -186.092,     -3.18449
     -185.719,     -3.16083
     -185.346,     -2.88571
     -184.973,     -2.64869
     -184.600,     -2.71315
     -184.227,     -3.03871
     -183.854,     -3.26539
     -183.481,     -2.98733
     -183.109,     -2.11071
     -182.736,    -0.971855
     -182.363,   -0.0779776
     -181.990,     0.292157
     -181.617,     0.239803
     -181.244,    0.0506275
     -180.871,   -0.0696271
     -180.498,   -0.0795743
     -180.125,   -0.0568155
     -179.752,    -0.132517
     -179.379,    -0.384658
     -179.006,    -0.725753
     -178.633,    -0.934222
     -178.260,    -0.834067
     -177.887,    -0.443302
     -177.514,    0.0299934
     -177.141,     0.337079
     -176.768,     0.394528
     -176.395,     0.351138
     -176.022,     0.400882
     -175.649,     0.560725
     -175.276,     0.686897
     -174.903,     0.623245
     -174.530,     0.236102
     -174.157,    -0.587229
     -173.784,     -1.79133
     -173.411,     -3.01661
     -173.038,     -3.76761
     -172.665,     -3.78587
     -172.292,     -3.22884
     -171.919,     -2.49245
     -171.546,     -1.89077
     -171.173,     -1.48463
     -170.800,     -1.16248
     -170.427,    -0.820620
     -170.054,    -0.418271
     -169.681,    0.0899782
     -169.308,     0.759659
     -168.935,      1.56952
     -168.562,      2.39198
     -168.189,      3.06880
     -167.816,      3.48306
     -167.443,      3.56309
     -167.070,      3.27589
     -166.698,      2.66281
     -166.325,      1.87030
     -165.952,      1.09817
     -165.579,     0.484045
     -165.206,    0.0288632
     -164.833,    -0.357700
     -164.460,    -0.715734
     -164.087,    -0.954387
     -163.714,    -0.985575
     -163.341,    -0.930638
     -162.968,     -1.05232
     -162.595,     -1.41773
     -162.222,     -1.75487
     -161.849,     -1.73493
     -161.476,     -1.31191
     -161.103,    -0.717770
     -160.730,    -0.219813
     -160.357,    0.0310114
     -159.984,   0.00612059
     -159.611,    -0.213867
     -159.238,    -0.482977
     -158.865,    -0.703128
     -158.492,    -0.864241
     -158.119,    -0.926949
     -157.746,    -0.752346
     -157.373,    -0.240819
     -157.000,     0.523875
     -156.627,      1.37080
     -156.254,      2.23866
     -155.881,      3.17553
     -155.508,      4.17352
     -155.135,      5.10993
     -154.762,      5.84137
     -154.389,      6.25033
     -154.016,      6.17884
     -153.643,      5.41958
     -153.270,      3.88107
     -152.897,      1.76964
     -152.524,    -0.458730
     -152.151,     -2.33766
     -151.778,     -3.54004
     -151.405,     -3.88490
     -151.032,     -3.41201
     -150.659,     -2.49491
     -150.286,     -1.67752
     -149.914,     -1.23596
     -149.541,    -0.947416
     -149.168,    -0.374649
     -148.795,     0.651590
     -148.422,      1.86191
     -148.049,      2.78999
     -147.676,      3.15295
     -147.303,      3.06538
     -146.930,      2.92422
     -146.557,      3.06139
     -146.184,      3.47859
     -145.811,      3.84415
     -145.438,      3.67859
     -145.065,      2.66087
     -144.692,     0.967699
     -144.319,    -0.676812
     -143.946,     -1.46301
     -143.573,     -1.11217
     -143.200,   -0.0528965
     -142.827,     0.951946
     -142.454,      1.32275
     -142.081,     0.933179
     -141.708,    0.0339244
     -141.335,     -1.03457
     -140.962,     -2.07971
     -140.589,     -3.05691
     -140.216,     -3.93639
     -139.843,     -4.68422
     -139.470,     -5.34336
     -139.097,     -5.97690
     -138.724,     -6.49093
     -138.351,     -6.64050
     -137.978,     -6.27092
     -137.605,     -5.46556
     -137.232,     -4.42859
     -136.859,     -3.32649
     -136.486,     -2.26036
     -136.113,     -1.25134
     -135.740,    -0.200662
     -135.367,      1.00665
     -134.994,      2.29071
     -134.621,      3.36876
     -134.248,      4.02279
     -133.875,      4.29564
     -133.503,      4.34228
     -133.130,      4.16057
     -132.757,      3.63689
     -132.384,      2.88921
     -132.011,      2.36902
     -131.638,      2.43980
     -131.265,      2.91211
     -130.892,      3.15916
     -130.519,      2.72594
     -130.146,      1.75762
     -129.773,     0.831447
     -129.400,     0.459092
     -129.027,     0.781918
     -128.654,      1.60914
     -128.281,      2.55877
     -127.908,      3.15592
     -127.535,      3.00896
     -127.162,      2.08670
     -126.789,     0.818693
     -126.416,    -0.199020
     -126.043,    -0.664033
     -125.670,    -0.733620
     -125.297,    -0.744534
     -124.924,    -0.802008
     -124.551,    -0.680244
     -124.178,    -0.146298
     -123.805,     0.672552
     -123.432,      1.34079
     -123.059,      1.52743
     -122.686,      1.26304
     -122.313,     0.765867
     -121.940,     0.123085
     -121.567,    -0.759303
     -121.194,     -1.89650
     -120.821,     -2.98410
     -120.448,     -3.50446
     -120.075,     -3.14317
     -119.702,     -2.09071
     -119.329,    -0.870203
     -118.956,     0.127473
     -118.583,     0.865706
     -118.210,      1.43947
     -117.837,      1.77024
     -117.464,      1.61303
     -117.091,     0.828300
     -116.719,    -0.398587
     -116.346,     -1.58380
     -115.973,     -2.18323
     -115.600,     -1.89045
     -115.227,    -0.823297
     -114.854,     0.525879
     -114.481,      1.57547
     -114.108,      1.98729
     -113.735,      1.79297
     -113.362,      1.26227
     -112.989,     0.703552
     -112.616,     0.351838
     -112.243,     0.302908
     -111.870,     0.442489
     -111.497,     0.483610
     -111.124,     0.193847
     -110.751,    -0.381548
     -110.378,    -0.958661
     -110.005,     -1.25558
     -109.632,     -1.15158
     -109.259,    -0.671215
     -108.886,    0.0646880
     -108.513,     0.850474
     -108.140,      1.44522
     -107.767,      1.67439
     -107.394,      1.49952
     -107.021,      1.03376
     -106.648,     0.539133
     -106.275,     0.361829
     -105.902,     0.726967
     -105.529,      1.48485
     -105.156,      2.08756
     -104.783,      1.96697
     -104.410,      1.07068
     -104.037,    0.0123343
     -103.664,    -0.408830
     -103.291,     0.130818
     -102.918,      1.29287
     -102.545,      2.44924
     -102.172,      3.15032
     -101.799,      3.30949
     -101.426,      3.10477
     -101.053,      2.76543
     -100.680,      2.37179
     -100.307,      1.79937
     -99.9345,     0.910099
     -99.5615,    -0.182197
     -99.1886,     -1.13506
     -98.8156,     -1.70171
     -98.4426,     -1.91810
     -98.0696,     -1.91872
     -97.6967,     -1.70255
     -97.3237,     -1.20228
     -96.9507,    -0.535216
     -96.5777,   -0.0603842
     -96.2047,    -0.118805
     -95.8318,    -0.727343
     -95.4588,     -1.56614
     -95.0858,     -2.27721
     -94.7128,     -2.74989
     -94.3399,     -3.09292
     -93.9669,     -3.37720
     -93.5939,     -3.51505
     -93.2209,     -3.40644
     -92.8479,     -3.07786
     -92.4750,     -2.60865
     -92.1020,     -2.01069
     -91.7290,     -1.27214
     -91.3560,    -0.499375
     -90.9831,    0.0595167
     -90.6101,     0.188790
     -90.2371,   -0.0775198
     -89.8641,    -0.415066
     -89.4911,    -0.399483
     -89.1182,     0.209647
     -88.7452,      1.27164
     -88.3722,      2.29222
     -87.9992,      2.72322
     -87.6263,      2.36461
     -87.2533,      1.51287
     -86.8803,     0.686710
     -86.5073,     0.205145
     -86.1343,    0.0371075
     -85.7614,  -0.00540902
     -85.3884,   -0.0329343
     -85.0154,   -0.0504846
     -84.6424,   -0.0529938
     -84.2695,   -0.0418885
     -83.8965,    0.0307525
     -83.5235,     0.223476
     -83.1505,     0.467537
     -82.7775,     0.534547
     -82.4046,     0.209223
     -82.0316,    -0.484703
     -81.6586,     -1.21390
     -81.2856,     -1.50782
     -80.9127,     -1.08555
     -80.5397,   -0.0767126
     -80.1667,      1.06804
     -79.7937,      1.87417
     -79.4208,      2.09594
     -79.0478,      1.80108
     -78.6748,      1.27438
     -78.3018,     0.797187
     -77.9288,     0.487400
     -77.5559,     0.350200
     -77.1829,     0.428393
     -76.8099,     0.800192
     -76.4369,      1.37905
     -76.0640,      1.80081
     -75.6910,      1.67668
     -75.3180,      1.02287
     -74.9450,     0.345804
     -74.5720,     0.219547
     -74.1991,     0.798208
     -73.8261,      1.73687
     -73.4531,      2.49081
     -73.0801,      2.64465
     -72.7072,      2.06187
     -72.3342,     0.892591
     -71.9612,    -0.480406
     -71.5882,     -1.58581
     -71.2152,     -2.12593
     -70.8423,     -2.18772
     -70.4693,     -2.14022
     -70.0963,     -2.23578
     -69.7233,     -2.30278
     -69.3504,     -1.87413
     -68.9774,    -0.650025
     -68.6044,      1.14733
     -68.2314,      2.85164
     -67.8584,      3.77356
     -67.4855,      3.61772
     -67.1125,      2.62942
     -66.7395,      1.40598
     -66.3665,     0.489144
     -65.9936,    0.0340094
     -65.6206,    -0.168838
     -65.2476,    -0.379293
     -64.8746,    -0.636136
     -64.5016,    -0.745201
     -64.1287,    -0.479413
     -63.7557,     0.178449
     -63.3827,     0.930169
     -63.0097,      1.31060
     -62.6368,      1.02181
     -62.2638,     0.192647
     -61.8908,    -0.678979
     -61.5178,     -1.08282
     -61.1449,    -0.854406
     -60.7719,    -0.227186
     -60.3989,     0.425885
     -60.0259,     0.852729
     -59.6529,     0.931257
     -59.2800,     0.555007
     -58.9070,    -0.319133
     -58.5340,     -1.50715
     -58.1610,     -2.62795
     -57.7881,     -3.37602
     -57.4151,     -3.73531
     -57.0421,     -3.90808
     -56.6691,     -4.06455
     -56.2961,     -4.17448
     -55.9232,     -4.04240
     -55.5502,     -3.46115
     -55.1772,     -2.37313
     -54.8042,    -0.975199
     -54.4313,     0.353217
     -54.0583,      1.34084
     -53.6853,      2.05525
     -53.3123,      2.75076
     -52.9393,      3.48124
     -52.5664,      3.93994
     -52.1934,      3.67654
     -51.8204,      2.43638
     -51.4474,     0.387574
     -51.0745,     -1.85285
     -50.7015,     -3.48321
     -50.3285,     -3.99664
     -49.9555,     -3.47524
     -49.5825,     -2.39388
     -49.2096,     -1.16991
     -48.8366,    0.0487917
     -48.4636,      1.21361
     -48.0906,      2.13482
     -47.7177,      2.51168
     -47.3447,      2.19919
     -46.9717,      1.36960
     -46.5987,     0.363510
     -46.2257,    -0.590877
     -45.8528,     -1.48190
     -45.4798,     -2.36584
     -45.1068,     -3.16404
     -44.7338,     -3.64738
     -44.3609,     -3.61508
     -43.9879,     -3.02280
     -43.6149,     -1.94426
     -43.2419,    -0.567889
     -42.8689,     0.685569
     -42.4960,      1.21533
     -42.1230,     0.633747
     -41.7500,    -0.857552
     -41.3770,     -2.56150
     -41.0041,     -3.79103
     -40.6311,     -4.30308
     -40.2581,     -4.31016
     -39.8851,     -4.15679
     -39.5121,     -4.01718
     -39.1392,     -3.84521
     -38.7662,     -3.49008
     -38.3932,     -2.80557
     -38.0202,     -1.75752
     -37.6473,    -0.545649
     -37.2743,     0.440257
     -36.9013,     0.919329
     -36.5283,     0.955974
     -36.1554,     0.785783
     -35.7824,     0.447438
     -35.4094,    -0.258124
     -35.0364,     -1.44296
     -34.6634,     -2.90261
     -34.2905,     -4.22232
     -33.9175,     -4.99985
     -33.5445,     -4.96197
     -33.1715,     -4.01558
     -32.7986,     -2.32533
     -32.4256,    -0.353427
     -32.0526,      1.29607
     -31.6796,      2.23863
     -31.3066,      2.57428
     -30.9337,      2.70972
     -30.5607,      2.87631
     -30.1877,      2.90999
     -29.8147,      2.52829
     -29.4418,      1.69916
     -29.0688,     0.675625
     -28.6958,    -0.236053
     -28.3228,    -0.872566
     -27.9498,     -1.24184
     -27.5769,     -1.43019
     -27.2039,     -1.48278
     -26.8309,     -1.35207
     -26.4579,    -0.950653
     -26.0850,    -0.246786
     -25.7120,     0.685869
     -25.3390,      1.68763
     -24.9660,      2.56599
     -24.5930,      3.14841
     -24.2201,      3.31928
     -23.8471,      3.03997
     -23.4741,      2.37120
     -23.1011,      1.50159
     -22.7282,     0.715752
     -22.3552,     0.248619
     -21.9822,     0.145081
     -21.6092,     0.308428
     -21.2362,     0.674087
     -20.8633,      1.23140
     -20.4903,      1.83911
     -20.1173,      2.15463
     -19.7443,      1.90188
     -19.3714,      1.20049
     -18.9984,     0.530020
     -18.6254,     0.343610
     -18.2524,     0.720071
     -17.8795,      1.33269
     -17.5065,      1.71654
     -17.1335,      1.62371
     -16.7605,      1.18792
     -16.3875,     0.746281
     -16.0146,     0.495079
     -15.6416,     0.366439
     -15.2686,     0.255296
     -14.8956,     0.266375
     -14.5227,     0.646560
     -14.1497,      1.51174
     -13.7767,      2.68069
     -13.4037,      3.71852
     -13.0307,      4.12700
     -12.6578,      3.61543
     -12.2848,      2.31682
     -11.9118,     0.755344
     -11.5388,    -0.464502
     -11.1659,     -1.02389
     -10.7929,     -1.04545
     -10.4199,    -0.957093
     -10.0469,     -1.16989
     -9.67394,     -1.77870
     -9.30097,     -2.50920
     -8.92799,     -2.96574
     -8.55501,     -2.95683
     -8.18203,     -2.62157
     -7.80906,     -2.30630
     -7.43608,     -2.32395
     -7.06310,     -2.74166
     -6.69012,     -3.32417
     -6.31715,     -3.69042
     -5.94417,     -3.57045
     -5.57119,     -2.96126
     -5.19821,     -2.08969
     -4.82524,     -1.24881
     -4.45226,    -0.636235
     -4.07928,    -0.287114
     -3.70630,    -0.116941
     -3.33333,   -0.0181435
     -2.96035,    0.0785823
     -2.58737,     0.218116
     -2.21439,     0.444316
     -1.84142,     0.762025
     -1.46844,      1.08688
     -1.09546,      1.26243
    -0.722483,      1.13713
    -0.349505,     0.670145
    0.0234723,    0.0119971
     0.396450,    -0.560647
     0.769427,    -0.853548
      1.14241,    -0.887732
      1.51538,    -0.813843
      1.88836,    -0.729723
      2.26134,    -0.593914
      2.63432,    -0.308787
      3.00729,    0.0949035
      3.38027,     0.367239
      3.75325,     0.211204
      4.12623,    -0.406981
      4.49920,     -1.16848
      4.87218,     -1.65887
      5.24516,     -1.67740
      5.61814,     -1.31600
      5.99111,    -0.849807
      6.36409,    -0.574657
      6.73707,    -0.640049
      7.11005,    -0.957686
      7.48302,     -1.28889
      7.85600,     -1.46775
      8.22898,     -1.55679
      8.60196,     -1.75483
      8.97493,     -2.11412
      9.34791,     -2.37544
      9.72089,     -2.15326
      10.0939,     -1.29051
      10.4668,    0.0123693
      10.8398,      1.39056
      11.2128,      2.55092
      11.5858,      3.32372
      11.9588,      3.60724
      12.3317,      3.38034
      12.7047,      2.78032
      13.0777,      2.09061
      13.4507,      1.58822
      13.8236,      1.40041
      14.1966,      1.49034
      14.5696,      1.71196
      14.9426,      1.87288
      15.3156,      1.83412
      15.6885,      1.59574
      16.0615,      1.26663
      16.4345,     0.977604
      16.8075,     0.855739
      17.1804,      1.00630
      17.5534,      1.42232
      17.9264,      1.92948
      18.2994,      2.29402
      18.6724,      2.40931
      19.0453,      2.36423
      19.4183,      2.33389
      19.7913,      2.41760
      20.1643,      2.56185
      20.5372,      2.59047
      20.9102,      2.30306
      21.2832,      1.61937
      21.6562,     0.716231
      22.0292,    0.0246057
      22.4021,  -0.00296424
      22.7751,     0.771951
      23.1481,      2.01885
      23.5211,      3.11486
      23.8940,      3.50178
      24.2670,      2.95943
      24.6400,      1.68581
