# Freq.: 9.8120000e+09Hz; t_int: 167.08144h; (l,b) = (347.23593, 0.013093461)
     -240.187,      0.00000
     -239.814,      0.00000
     -239.441,      0.00000
     -239.068,      0.00000
     -238.695,      0.00000
     -238.322,      0.00000
     -237.949,      0.00000
     -237.576,      0.00000
     -237.203,      0.00000
     -236.830,      0.00000
     -236.457,      0.00000
     -236.084,      1.30223
     -235.711,      1.24533
     -235.338,     0.835526
     -234.965,  -0.00354205
     -234.592,     -1.29085
     -234.219,     -2.88787
     -233.846,     -4.44587
     -233.473,     -5.50745
     -233.101,     -5.76711
     -232.728,     -5.28043
     -232.355,     -4.36755
     -231.982,     -3.29078
     -231.609,     -2.07527
     -231.236,    -0.652891
     -230.863,     0.900728
     -230.490,      2.34537
     -230.117,      3.45546
     -229.744,      4.15372
     -229.371,      4.51089
     -228.998,      4.68799
     -228.625,      4.82536
     -228.252,      4.91186
     -227.879,      4.83110
     -227.506,      4.61364
     -227.133,      4.55247
     -226.760,      4.93689
     -226.387,      5.68147
     -226.014,      6.29640
     -225.641,      6.24430
     -225.268,      5.33116
     -224.895,      3.80306
     -224.522,      2.12477
     -224.149,     0.674763
     -223.776,    -0.402816
     -223.403,     -1.15609
     -223.030,     -1.71797
     -222.657,     -2.21302
     -222.284,     -2.64328
     -221.911,     -2.75775
     -221.538,     -2.08772
     -221.165,    -0.299713
     -220.792,      2.37827
     -220.419,      5.15433
     -220.046,      7.17951
     -219.673,      8.03930
     -219.300,      7.76948
     -218.927,      6.56735
     -218.554,      4.66829
     -218.181,      2.47614
     -217.808,     0.580356
     -217.435,    -0.565174
     -217.062,    -0.992839
     -216.689,     -1.16906
     -216.316,     -1.57455
     -215.943,     -2.34172
     -215.570,     -3.23401
     -215.197,     -3.88166
     -214.824,     -4.02115
     -214.451,     -3.58604
     -214.078,     -2.69107
     -213.705,     -1.62301
     -213.332,    -0.821871
     -212.959,    -0.711030
     -212.586,     -1.37934
     -212.213,     -2.41796
     -211.840,     -3.20558
     -211.467,     -3.44047
     -211.094,     -3.32835
     -210.721,     -3.20342
     -210.348,     -3.07593
     -209.975,     -2.67843
     -209.602,     -1.91351
     -209.229,     -1.08255
     -208.857,    -0.588734
     -208.484,    -0.527467
     -208.111,    -0.692168
     -207.738,    -0.894106
     -207.365,     -1.09038
     -206.992,     -1.20993
     -206.619,     -1.07137
     -206.246,    -0.591544
     -205.873,    0.0450261
     -205.500,     0.555554
     -205.127,     0.854387
     -204.754,      1.07264
     -204.381,      1.25342
     -204.008,      1.10854
     -203.635,     0.243273
     -203.262,     -1.29106
     -202.889,     -2.80625
     -202.516,     -3.52856
     -202.143,     -3.32798
     -201.770,     -2.78114
     -201.397,     -2.54596
     -201.024,     -2.80362
     -200.651,     -3.29228
     -200.278,     -3.68884
     -199.905,     -3.81674
     -199.532,     -3.58611
     -199.159,     -2.95901
     -198.786,     -2.02986
     -198.413,     -1.00197
     -198.040,   -0.0120049
     -197.667,     0.930672
     -197.294,      1.76593
     -196.921,      2.25792
     -196.548,      2.20866
     -196.175,      1.78800
     -195.802,      1.48566
     -195.429,      1.64699
     -195.056,      2.15154
     -194.683,      2.62490
     -194.310,      2.84317
     -193.937,      2.81173
     -193.564,      2.57969
     -193.191,      2.15976
     -192.818,      1.57728
     -192.445,     0.884039
     -192.072,     0.194278
     -191.699,    -0.246879
     -191.326,    -0.202310
     -190.953,     0.239392
     -190.580,     0.626964
     -190.207,     0.565040
     -189.834,     0.122736
     -189.461,    -0.258365
     -189.088,    -0.238220
     -188.715,     0.126901
     -188.342,     0.552287
     -187.969,     0.835641
     -187.596,     0.934277
     -187.223,     0.914042
     -186.850,      1.01163
     -186.477,      1.65913
     -186.104,      3.18601
     -185.731,      5.35749
     -185.358,      7.26227
     -184.986,      7.78557
     -184.613,      6.34501
     -184.240,      3.32136
     -183.867,    -0.166393
     -183.494,     -2.97156
     -183.121,     -4.50776
     -182.748,     -4.77520
     -182.375,     -4.05201
     -182.002,     -2.74435
     -181.629,     -1.42013
     -181.256,    -0.675245
     -180.883,    -0.792183
     -180.510,     -1.56265
     -180.137,     -2.47464
     -179.764,     -3.04145
     -179.391,     -3.01891
     -179.018,     -2.48670
     -178.645,     -1.78747
     -178.272,     -1.27954
     -177.899,     -1.07999
     -177.526,     -1.06032
     -177.153,     -1.01152
     -176.780,    -0.723459
     -176.407,   -0.0400733
     -176.034,     0.950897
     -175.661,      1.82437
     -175.288,      2.10145
     -174.915,      1.63943
     -174.542,     0.658703
     -174.169,    -0.527743
     -173.796,     -1.66403
     -173.423,     -2.50754
     -173.050,     -2.86765
     -172.677,     -2.78089
     -172.304,     -2.53450
     -171.931,     -2.40565
     -171.558,     -2.39166
     -171.185,     -2.21950
     -170.812,     -1.58198
     -170.439,    -0.376799
     -170.066,      1.19428
     -169.693,      2.70625
     -169.320,      3.72447
     -168.947,      4.00258
     -168.574,      3.52289
     -168.201,      2.41767
     -167.828,     0.954999
     -167.455,    -0.373400
     -167.082,    -0.907251
     -166.709,    -0.214588
     -166.336,      1.43932
     -165.963,      3.10430
     -165.590,      3.78117
     -165.217,      3.15388
     -164.844,      1.76405
     -164.471,     0.495922
     -164.098,    -0.149237
     -163.725,    -0.363120
     -163.352,    -0.731859
     -162.979,     -1.70927
     -162.606,     -3.33788
     -162.233,     -5.29334
     -161.860,     -7.05471
     -161.487,     -8.12672
     -161.114,     -8.30640
     -160.742,     -7.78980
     -160.369,     -6.94215
     -159.996,     -5.96178
     -159.623,     -4.82035
     -159.250,     -3.47910
     -158.877,     -2.06044
     -158.504,    -0.805458
     -158.131,    0.0673184
     -157.758,     0.452033
     -157.385,     0.375856
     -157.012,   -0.0158273
     -156.639,    -0.509073
     -156.266,    -0.902160
     -155.893,     -1.07170
     -155.520,    -0.987848
     -155.147,    -0.706077
     -154.774,    -0.374316
     -154.401,    -0.216534
     -154.028,    -0.433595
     -153.655,     -1.07945
     -153.282,     -2.01848
     -152.909,     -2.95416
     -152.536,     -3.50777
     -152.163,     -3.41493
     -151.790,     -2.75181
     -151.417,     -1.91190
     -151.044,     -1.31530
     -150.671,     -1.17285
     -150.298,     -1.45394
     -149.925,     -1.91955
     -149.552,     -2.19336
     -149.179,     -1.97079
     -148.806,     -1.26175
     -148.433,    -0.412988
     -148.060,     0.124296
     -147.687,    0.0543141
     -147.314,    -0.642005
     -146.941,     -1.72192
     -146.568,     -2.82691
     -146.195,     -3.70489
     -145.822,     -4.29197
     -145.449,     -4.56241
     -145.076,     -4.39821
     -144.703,     -3.70459
     -144.330,     -2.63041
     -143.957,     -1.60292
     -143.584,     -1.07880
     -143.211,     -1.18368
     -142.838,     -1.56503
     -142.465,     -1.66347
     -142.092,     -1.22844
     -141.719,    -0.615497
     -141.346,    -0.549527
     -140.973,     -1.53955
     -140.600,     -3.46959
     -140.227,     -5.67463
     -139.854,     -7.33652
     -139.481,     -7.86978
     -139.108,     -7.12964
     -138.735,     -5.40572
     -138.362,     -3.21373
     -137.989,     -1.02572
     -137.616,     0.839946
     -137.243,      2.14379
     -136.870,      2.70539
     -136.498,      2.57132
     -136.125,      2.13921
     -135.752,      1.95983
     -135.379,      2.30609
     -135.006,      2.90130
     -134.633,      3.12766
     -134.260,      2.62623
     -133.887,      1.73148
     -133.514,      1.21668
     -133.141,      1.55295
     -132.768,      2.47293
     -132.395,      3.24457
     -132.022,      3.25567
     -131.649,      2.35994
     -131.276,     0.863605
     -130.903,    -0.689970
     -130.530,     -1.76979
     -130.157,     -2.03024
     -129.784,     -1.39848
     -129.411,    -0.113975
     -129.038,      1.31928
     -128.665,      2.31255
     -128.292,      2.41598
     -127.919,      1.47959
     -127.546,    -0.234843
     -127.173,     -2.03465
     -126.800,     -3.06305
     -126.427,     -2.83136
     -126.054,     -1.59232
     -125.681,    -0.162617
     -125.308,     0.711686
     -124.935,     0.928477
     -124.562,      1.03173
     -124.189,      1.64349
     -123.816,      2.90236
     -123.443,      4.41869
     -123.070,      5.62847
     -122.697,      6.11083
     -122.324,      5.71097
     -121.951,      4.57773
     -121.578,      3.14060
     -121.205,      1.95170
     -120.832,      1.42941
     -120.459,      1.64784
     -120.086,      2.29211
     -119.713,      2.84724
     -119.340,      2.96553
     -118.967,      2.73760
     -118.594,      2.58296
     -118.221,      2.84933
     -117.848,      3.52797
     -117.475,      4.32920
     -117.102,      4.96478
     -116.729,      5.34005
     -116.356,      5.53931
     -115.983,      5.69578
     -115.610,      5.87110
     -115.237,      6.00939
     -114.864,      5.99087
     -114.491,      5.75286
     -114.118,      5.36895
     -113.745,      4.99230
     -113.372,      4.71781
     -112.999,      4.53920
     -112.627,      4.46078
     -112.254,      4.56886
     -111.881,      4.88799
     -111.508,      5.20299
     -111.135,      5.15480
     -110.762,      4.54937
     -110.389,      3.53108
     -110.016,      2.48542
     -109.643,      1.81333
     -109.270,      1.69166
     -108.897,      1.92045
     -108.524,      2.05672
     -108.151,      1.81156
     -107.778,      1.30740
     -107.405,     0.930194
     -107.032,     0.983373
     -106.659,      1.46408
     -106.286,      2.06705
     -105.913,      2.38463
     -105.540,      2.19870
     -105.167,      1.64476
     -104.794,      1.07507
     -104.421,     0.747595
     -104.048,     0.657136
     -103.675,     0.646140
     -103.302,     0.645838
     -102.929,     0.799409
     -102.556,      1.33393
     -102.183,      2.30304
     -101.810,      3.48630
     -101.437,      4.55634
     -101.064,      5.30975
     -100.691,      5.73010
     -100.318,      5.88865
     -99.9450,      5.83211
     -99.5720,      5.54851
     -99.1991,      5.02174
     -98.8261,      4.33979
     -98.4531,      3.74886
     -98.0801,      3.54711
     -97.7071,      3.87007
     -97.3341,      4.54669
     -96.9612,      5.17861
     -96.5882,      5.45544
     -96.2152,      5.46161
     -95.8422,      5.60048
     -95.4692,      6.13577
     -95.0962,      6.86742
     -94.7232,      7.33136
     -94.3503,      7.26419
     -93.9773,      6.79906
     -93.6043,      6.26022
     -93.2313,      5.88878
     -92.8583,      5.78829
     -92.4853,      6.01575
     -92.1124,      6.60372
     -91.7394,      7.49327
     -91.3664,      8.51601
     -90.9934,      9.46856
     -90.6204,      10.2067
     -90.2474,      10.7081
     -89.8745,      11.0616
     -89.5015,      11.3621
     -89.1285,      11.6263
     -88.7555,      11.8656
     -88.3825,      12.2142
     -88.0095,      12.9034
     -87.6365,      14.0731
     -87.2636,      15.6158
     -86.8906,      17.2492
     -86.5176,      18.7929
     -86.1446,      20.3547
     -85.7716,      22.1655
     -85.3986,      24.2535
     -85.0257,      26.3776
     -84.6527,      28.2433
     -84.2797,      29.6717
     -83.9067,      30.6099
     -83.5337,      31.1411
     -83.1607,      31.5143
     -82.7877,      32.0550
     -82.4148,      32.9799
     -82.0418,      34.3084
     -81.6688,      35.9265
     -81.2958,      37.6604
     -80.9228,      39.2803
     -80.5498,      40.5287
     -80.1768,      41.2334
     -79.8039,      41.3942
     -79.4309,      41.1364
     -79.0579,      40.6001
     -78.6849,      39.9056
     -78.3119,      39.1885
     -77.9389,      38.6055
     -77.5660,      38.2832
     -77.1930,      38.2788
     -76.8200,      38.5847
     -76.4470,      39.1422
     -76.0740,      39.8247
     -75.7010,      40.4158
     -75.3281,      40.6540
     -74.9551,      40.3721
     -74.5821,      39.6302
     -74.2091,      38.6878
     -73.8361,      37.8197
     -73.4631,      37.1570
     -73.0901,      36.6952
     -72.7172,      36.4148
     -72.3442,      36.3542
     -71.9712,      36.5316
     -71.5982,      36.7971
     -71.2252,      36.8593
     -70.8522,      36.5436
     -70.4793,      35.9267
     -70.1063,      35.0842
     -69.7333,      33.7971
     -69.3603,      31.7318
     -68.9873,      28.9537
     -68.6143,      26.1195
     -68.2413,      24.0529
     -67.8684,      23.1324
     -67.4954,      23.0786
     -67.1224,      23.2691
     -66.7494,      23.2296
     -66.3764,      22.8733
     -66.0034,      22.3720
     -65.6305,      21.9117
     -65.2575,      21.5879
     -64.8845,      21.3957
     -64.5115,      21.1683
     -64.1385,      20.5432
     -63.7655,      19.1613
     -63.3925,      17.0224
     -63.0196,      14.6332
     -62.6466,      12.7069
     -62.2736,      11.6204
     -61.9006,      11.1425
     -61.5276,      10.7314
     -61.1546,      10.0887
     -60.7817,      9.36383
     -60.4087,      8.86173
     -60.0357,      8.69155
     -59.6627,      8.72446
     -59.2897,      8.75836
     -58.9167,      8.64033
     -58.5438,      8.31254
     -58.1708,      7.86282
     -57.7978,      7.53515
     -57.4248,      7.57714
     -57.0518,      7.99303
     -56.6788,      8.48269
     -56.3058,      8.68158
     -55.9329,      8.44828
     -55.5599,      7.90404
     -55.1869,      7.24221
     -54.8139,      6.54043
     -54.4409,      5.71413
     -54.0679,      4.57327
     -53.6950,      2.93445
     -53.3220,     0.827359
     -52.9490,     -1.28983
     -52.5760,     -2.63472
     -52.2030,     -2.64808
     -51.8300,     -1.50688
     -51.4570,   -0.0193203
     -51.0841,      1.02004
     -50.7111,      1.36405
     -50.3381,      1.28067
     -49.9651,      1.14157
     -49.5921,      1.12048
     -49.2191,      1.18372
     -48.8462,      1.19546
     -48.4732,      1.00825
     -48.1002,     0.558669
     -47.7272,   -0.0790611
     -47.3542,    -0.750172
     -46.9812,     -1.28840
     -46.6082,     -1.49615
     -46.2353,     -1.17011
     -45.8623,    -0.293059
     -45.4893,     0.831536
     -45.1163,      1.78466
     -44.7433,      2.40272
     -44.3703,      2.84293
     -43.9974,      3.27271
     -43.6244,      3.66081
     -43.2514,      3.96029
     -42.8784,      4.30848
     -42.5054,      4.81530
     -42.1324,      5.19035
     -41.7594,      4.80696
     -41.3865,      3.27200
     -41.0135,     0.884490
     -40.6405,     -1.55159
     -40.2675,     -3.32443
     -39.8945,     -4.15870
     -39.5215,     -4.10015
     -39.1486,     -3.29581
     -38.7756,     -1.93812
     -38.4026,    -0.303016
     -38.0296,      1.24042
     -37.6566,      2.28792
     -37.2836,      2.51839
     -36.9106,      1.80069
     -36.5377,     0.231139
     -36.1647,     -1.84659
     -35.7917,     -3.83444
     -35.4187,     -5.05649
     -35.0457,     -5.15963
     -34.6727,     -4.37257
     -34.2998,     -3.26697
     -33.9268,     -2.25315
     -33.5538,     -1.38728
     -33.1808,    -0.625366
     -32.8078,   -0.0605924
     -32.4348,     0.203261
     -32.0618,     0.275114
     -31.6889,     0.386686
     -31.3159,     0.589795
     -30.9429,     0.670265
     -30.5699,     0.388625
     -30.1969,    -0.274841
     -29.8239,     -1.13306
     -29.4510,     -1.93472
     -29.0780,     -2.40450
     -28.7050,     -2.26394
     -28.3320,     -1.44124
     -27.9590,    -0.285795
     -27.5860,     0.628293
     -27.2131,      1.02559
     -26.8401,      1.16604
     -26.4671,      1.50854
     -26.0941,      2.21931
     -25.7211,      3.02330
     -25.3481,      3.45419
     -24.9751,      3.25189
     -24.6022,      2.58752
     -24.2292,      1.90044
     -23.8562,      1.48751
     -23.4832,      1.26159
     -23.1102,     0.886497
     -22.7372,     0.112707
     -22.3643,    -0.948765
     -21.9913,     -1.82192
     -21.6183,     -2.05594
     -21.2453,     -1.75107
     -20.8723,     -1.58745
     -20.4993,     -2.14597
     -20.1263,     -3.22644
     -19.7534,     -3.96833
     -19.3804,     -3.64959
     -19.0074,     -2.33487
     -18.6344,    -0.807537
     -18.2614,    0.0628371
     -17.8884,   -0.0928421
     -17.5155,     -1.07375
     -17.1425,     -2.45544
     -16.7695,     -3.90701
     -16.3965,     -5.23860
     -16.0235,     -6.26823
     -15.6505,     -6.71853
     -15.2775,     -6.31288
     -14.9046,     -5.03604
     -14.5316,     -3.28191
     -14.1586,     -1.67266
     -13.7856,    -0.673726
     -13.4126,    -0.325895
     -13.0396,    -0.294355
     -12.6667,    -0.187406
     -12.2937,    0.0993022
     -11.9207,     0.319070
     -11.5477,     0.200512
     -11.1747,    -0.166554
     -10.8017,    -0.397349
     -10.4287,    -0.304287
     -10.0558,    -0.139563
     -9.68278,    -0.217619
     -9.30979,    -0.476606
     -8.93681,    -0.635141
     -8.56382,    -0.679406
     -8.19084,    -0.942761
     -7.81786,     -1.70032
     -7.44487,     -2.86971
     -7.07189,     -4.13492
     -6.69890,     -5.20788
     -6.32592,     -5.91229
     -5.95293,     -6.13350
     -5.57995,     -5.80656
     -5.20696,     -4.97698
     -4.83398,     -3.87024
     -4.46099,     -2.89060
     -4.08801,     -2.47037
     -3.71503,     -2.79393
     -3.34204,     -3.61138
     -2.96906,     -4.36172
     -2.59607,     -4.54999
     -2.22309,     -4.08254
     -1.85010,     -3.30296
     -1.47712,     -2.67480
     -1.10413,     -2.31799
    -0.731150,     -1.83901
    -0.358165,    -0.747337
    0.0148195,     0.898641
     0.387804,      2.36297
     0.760789,      2.82097
      1.13377,      2.05644
      1.50676,     0.625139
      1.87974,    -0.576324
      2.25273,    -0.936950
      2.62571,    -0.451963
      2.99870,     0.474127
      3.37168,      1.42658
      3.74466,      2.14913
      4.11765,      2.51296
      4.49063,      2.54052
      4.86362,      2.40347
      5.23660,      2.21725
      5.60959,      1.86362
      5.98257,      1.13943
      6.35556,    0.0254244
      6.72854,     -1.30220
      7.10153,     -2.64930
      7.47451,     -3.86338
      7.84749,     -4.76087
      8.22048,     -5.11367
      8.59346,     -4.74706
      8.96645,     -3.66302
      9.33943,     -2.09589
      9.71242,    -0.437951
      10.0854,     0.923769
      10.4584,      1.71356
      10.8314,      1.76282
      11.2044,      1.01667
      11.5773,    -0.356007
      11.9503,     -1.85131
      12.3233,     -2.72598
      12.6963,     -2.37727
      13.0693,    -0.794319
      13.4423,      1.28844
      13.8152,      2.74290
      14.1882,      2.75852
      14.5612,      1.42240
      14.9342,    -0.356761
      15.3072,     -1.56066
      15.6802,     -1.74121
      16.0532,     -1.12548
      16.4261,    -0.289672
      16.7991,     0.225164
      17.1721,     0.222778
      17.5451,   -0.0410464
      17.9181,    -0.120347
      18.2911,     0.194036
      18.6640,     0.736818
      19.0370,      1.21750
      19.4100,      1.52206
      19.7830,      1.77110
      20.1560,      2.14142
      20.5290,      2.64579
      20.9020,      3.04855
      21.2749,      2.97192
      21.6479,      2.13276
      22.0209,     0.558542
      22.3939,     -1.39762
      22.7669,     -3.25472
      23.1399,     -4.60041
      23.5128,     -5.13894
      23.8858,     -4.70656
      24.2588,     -3.37907
      24.6318,     -1.53449
