# Freq.: 8.8770000e+09Hz; t_int: 214.31735h; (l,b) = (171.89760, -2.1331329)
     -844.783,      0.00000
     -844.371,      0.00000
     -843.958,      0.00000
     -843.546,      0.00000
     -843.134,      0.00000
     -842.722,      0.00000
     -842.309,      0.00000
     -841.897,      0.00000
     -841.485,      0.00000
     -841.072,      0.00000
     -840.660,      0.00000
     -840.248,     -1.00878
     -839.836,     -2.03412
     -839.423,     -2.75463
     -839.011,     -3.14480
     -838.599,     -3.35102
     -838.186,     -3.50891
     -837.774,     -3.57821
     -837.362,     -3.44855
     -836.950,     -3.12840
     -836.537,     -2.73225
     -836.125,     -2.32727
     -835.713,     -1.85487
     -835.300,     -1.17360
     -834.888,    -0.159653
     -834.476,      1.16857
     -834.063,      2.55627
     -833.651,      3.56842
     -833.239,      3.83453
     -832.827,      3.30928
     -832.414,      2.31680
     -832.002,      1.33571
     -831.590,     0.699350
     -831.177,     0.449591
     -830.765,     0.454912
     -830.353,     0.642723
     -829.941,      1.06526
     -829.528,      1.74178
     -829.116,      2.53091
     -828.704,      3.22723
     -828.291,      3.72653
     -827.879,      4.00562
     -827.467,      3.97439
     -827.055,      3.47937
     -826.642,      2.50839
     -826.230,      1.31943
     -825.818,     0.280328
     -825.405,    -0.435400
     -824.993,    -0.972298
     -824.581,     -1.61195
     -824.169,     -2.47394
     -823.756,     -3.36633
     -823.344,     -3.89389
     -822.932,     -3.74346
     -822.519,     -2.94101
     -822.107,     -1.84470
     -821.695,    -0.831085
     -821.283,   0.00698407
     -820.870,     0.773277
     -820.458,      1.40190
     -820.046,      1.55881
     -819.633,      1.02803
     -819.221,    0.0731562
     -818.809,    -0.774740
     -818.396,     -1.27014
     -817.984,     -1.63618
     -817.572,     -2.16984
     -817.160,     -2.79354
     -816.747,     -3.08236
     -816.335,     -2.69191
     -815.923,     -1.68882
     -815.510,    -0.475284
     -815.098,     0.511568
     -814.686,     0.977164
     -814.274,     0.783867
     -813.861,    0.0166391
     -813.449,    -0.910063
     -813.037,     -1.41424
     -812.624,     -1.22697
     -812.212,    -0.687298
     -811.800,    -0.409807
     -811.388,    -0.629965
     -810.975,    -0.952447
     -810.563,    -0.757843
     -810.151,     0.193231
     -809.738,      1.54539
     -809.326,      2.64355
     -808.914,      3.01287
     -808.502,      2.64328
     -808.089,      1.90921
     -807.677,      1.23078
     -807.265,     0.780069
     -806.852,     0.472378
     -806.440,     0.177848
     -806.028,    -0.122091
     -805.615,    -0.380521
     -805.203,    -0.587848
     -804.791,    -0.741260
     -804.379,    -0.743312
     -803.966,    -0.429279
     -803.554,     0.257796
     -803.142,      1.13614
     -802.729,      1.86076
     -802.317,      2.16209
     -801.905,      2.04332
     -801.493,      1.76440
     -801.080,      1.61752
     -800.668,      1.67202
     -800.256,      1.73172
     -799.843,      1.57323
     -799.431,      1.19496
     -799.019,     0.766326
     -798.607,     0.374548
     -798.194,   -0.0645721
     -797.782,    -0.624285
     -797.370,     -1.16845
     -796.957,     -1.38583
     -796.545,     -1.02994
     -796.133,    -0.132637
     -795.721,     0.999685
     -795.308,      1.99008
     -794.896,      2.61487
     -794.484,      2.88103
     -794.071,      2.93510
     -793.659,      2.92138
     -793.247,      2.90549
     -792.834,      2.85515
     -792.422,      2.64083
     -792.010,      2.10542
     -791.598,      1.20887
     -791.185,     0.120087
     -790.773,    -0.830789
     -790.361,     -1.30339
     -789.948,     -1.15150
     -789.536,    -0.571021
     -789.124,    0.0202435
     -788.712,     0.366614
     -788.299,     0.613433
     -787.887,      1.07007
     -787.475,      1.76287
     -787.062,      2.34057
     -786.650,      2.45720
     -786.238,      2.16858
     -785.826,      1.88087
     -785.413,      1.92822
     -785.001,      2.24502
     -784.589,      2.43756
     -784.176,      2.13274
     -783.764,      1.25543
     -783.352,    0.0100100
     -782.940,     -1.34118
     -782.527,     -2.61289
     -782.115,     -3.62808
     -781.703,     -4.13743
     -781.290,     -3.90814
     -780.878,     -2.90491
     -780.466,     -1.39634
     -780.053,     0.104532
     -779.641,      1.08293
     -779.229,      1.31475
     -778.817,     0.950422
     -778.404,     0.314735
     -777.992,    -0.330567
     -777.580,    -0.822905
     -777.167,     -1.03321
     -776.755,    -0.938109
     -776.343,    -0.764693
     -775.931,    -0.892437
     -775.518,     -1.49733
     -775.106,     -2.34945
     -774.694,     -3.01509
     -774.281,     -3.21078
     -773.869,     -2.94537
     -773.457,     -2.39770
     -773.044,     -1.73497
     -772.632,     -1.06568
     -772.220,    -0.505069
     -771.808,    -0.157633
     -771.395,    0.0302157
     -770.983,     0.326349
     -770.571,      1.01347
     -770.159,      2.07853
     -769.746,      3.09346
     -769.334,      3.44717
     -768.922,      2.77219
     -768.509,      1.21256
     -768.097,    -0.681656
     -767.685,     -2.31844
     -767.272,     -3.36659
     -766.860,     -3.78173
     -766.448,     -3.67108
     -766.036,     -3.24827
     -765.623,     -2.85678
     -765.211,     -2.85420
     -764.799,     -3.39327
     -764.386,     -4.33428
     -763.974,     -5.33541
     -763.562,     -5.98976
     -763.150,     -5.96142
     -762.737,     -5.12898
     -762.325,     -3.65951
     -761.913,     -1.93701
     -761.500,    -0.383778
     -761.088,     0.728569
     -760.676,      1.37529
     -760.264,      1.69437
     -759.851,      1.77983
     -759.439,      1.57759
     -759.027,      1.00804
     -758.614,     0.158549
     -758.202,    -0.692218
     -757.790,     -1.25847
     -757.378,     -1.45340
     -756.965,     -1.41835
     -756.553,     -1.38531
     -756.141,     -1.52618
     -755.728,     -1.84905
     -755.316,     -2.13953
     -754.904,     -2.05172
     -754.491,     -1.38597
     -754.079,    -0.301773
     -753.667,     0.787301
     -753.255,      1.51694
     -752.842,      1.76773
     -752.430,      1.65176
     -752.018,      1.39196
     -751.605,      1.18506
     -751.193,      1.10359
     -750.781,      1.10574
     -750.369,      1.14637
     -749.956,      1.26365
     -749.544,      1.52931
     -749.132,      1.89391
     -748.719,      2.10759
     -748.307,      1.88837
     -747.895,      1.22129
     -747.483,     0.413814
     -747.070,    -0.199841
     -746.658,    -0.524632
     -746.246,    -0.636122
     -745.833,    -0.568888
     -745.421,    -0.268566
     -745.009,     0.287787
     -744.596,     0.993829
     -744.184,      1.67002
     -743.772,      2.19985
     -743.360,      2.53461
     -742.947,      2.56576
     -742.535,      2.14834
     -742.123,      1.35021
     -741.710,     0.575354
     -741.298,     0.292515
     -740.886,     0.603600
     -740.474,      1.13447
     -740.061,      1.40808
     -739.649,      1.29048
     -739.237,     0.998597
     -738.824,     0.748522
     -738.412,     0.565544
     -738.000,     0.409808
     -737.588,     0.268447
     -737.175,    0.0462457
     -736.763,    -0.475407
     -736.351,     -1.42892
     -735.938,     -2.63031
     -735.526,     -3.61619
     -735.114,     -3.92450
     -734.702,     -3.39960
     -734.289,     -2.32720
     -733.877,     -1.26359
     -733.465,    -0.610332
     -733.052,    -0.305703
     -732.640,   0.00978790
     -732.228,     0.515252
     -731.815,     0.972306
     -731.403,     0.999557
     -730.991,     0.523162
     -730.579,    -0.122583
     -730.166,    -0.534781
     -729.754,    -0.580412
     -729.342,    -0.357313
     -728.929,    0.0367413
     -728.517,     0.544022
     -728.105,      1.03981
     -727.693,      1.38345
     -727.280,      1.59527
     -726.868,      1.84159
     -726.456,      2.19594
     -726.043,      2.50776
     -725.631,      2.54659
     -725.219,      2.19207
     -724.807,      1.45717
     -724.394,     0.454627
     -723.982,    -0.583233
     -723.570,     -1.37802
     -723.157,     -1.81562
     -722.745,     -2.01357
     -722.333,     -2.10601
     -721.921,     -2.05442
     -721.508,     -1.76623
     -721.096,     -1.32314
     -720.684,    -0.971150
     -720.271,    -0.893351
     -719.859,     -1.05038
     -719.447,     -1.21598
     -719.034,     -1.11588
     -718.622,    -0.583352
     -718.210,     0.302614
     -717.798,      1.21094
     -717.385,      1.80541
     -716.973,      2.08453
     -716.561,      2.40002
     -716.148,      3.02577
     -715.736,      3.74864
     -715.324,      4.00774
     -714.912,      3.45326
     -714.499,      2.29515
     -714.087,      1.08888
     -713.675,     0.238876
     -713.262,    -0.253356
     -712.850,    -0.603897
     -712.438,    -0.904298
     -712.026,     -1.00904
     -711.613,    -0.736008
     -711.201,    -0.120904
     -710.789,     0.562673
     -710.376,      1.01089
     -709.964,      1.06441
     -709.552,     0.695594
     -709.140,   -0.0708454
     -708.727,     -1.14067
     -708.315,     -2.27816
     -707.903,     -3.16249
     -707.490,     -3.61221
     -707.078,     -3.72847
     -706.666,     -3.72512
     -706.253,     -3.64188
     -705.841,     -3.33219
     -705.429,     -2.69913
     -705.017,     -1.79661
     -704.604,    -0.695188
     -704.192,     0.598844
     -703.780,      2.01227
     -703.367,      3.26330
     -702.955,      3.94942
     -702.543,      3.82336
     -702.131,      2.99424
     -701.718,      1.87573
     -701.306,     0.952476
     -700.894,     0.535287
     -700.481,     0.608424
     -700.069,     0.851056
     -699.657,     0.878641
     -699.245,     0.539613
     -698.832,   -0.0247681
     -698.420,    -0.594408
     -698.008,     -1.06873
     -697.595,     -1.43660
     -697.183,     -1.65111
     -696.771,     -1.64010
     -696.359,     -1.42694
     -695.946,     -1.15618
     -695.534,    -0.977497
     -695.122,    -0.933588
     -694.709,    -0.948379
     -694.297,    -0.898768
     -693.885,    -0.721915
     -693.472,    -0.477953
     -693.060,    -0.303725
     -692.648,    -0.313519
     -692.236,    -0.537868
     -691.823,    -0.891779
     -691.411,     -1.15996
     -690.999,     -1.07463
     -690.586,    -0.495496
     -690.174,     0.459105
     -689.762,      1.46251
     -689.350,      2.17352
     -688.937,      2.42516
     -688.525,      2.26445
     -688.113,      1.80978
     -687.700,      1.07574
     -687.288,   -0.0328370
     -686.876,     -1.55094
     -686.464,     -3.29573
     -686.051,     -4.86713
     -685.639,     -5.80367
     -685.227,     -5.80914
     -684.814,     -4.92247
     -684.402,     -3.50940
     -683.990,     -2.07053
     -683.578,    -0.989561
     -683.165,    -0.372147
     -682.753,   -0.0644177
     -682.341,     0.179950
     -681.928,     0.536366
     -681.516,      1.05774
     -681.104,      1.67859
     -680.691,      2.22631
     -680.279,      2.51180
     -679.867,      2.47665
     -679.455,      2.23036
     -679.042,      1.94542
     -678.630,      1.74157
     -678.218,      1.62918
     -677.805,      1.52378
     -677.393,      1.35154
     -676.981,      1.16112
     -676.569,      1.08149
     -676.156,      1.14343
     -675.744,      1.20181
     -675.332,      1.09786
     -674.919,     0.870783
     -674.507,     0.713395
     -674.095,     0.686885
     -673.683,     0.563672
     -673.270,    0.0362071
     -672.858,    -0.930167
     -672.446,     -2.00072
     -672.033,     -2.73495
     -671.621,     -2.93781
     -671.209,     -2.77633
     -670.797,     -2.59310
     -670.384,     -2.61515
     -669.972,     -2.81914
     -669.560,     -3.03195
     -669.147,     -3.09989
     -668.735,     -2.95810
     -668.323,     -2.63343
     -667.910,     -2.24780
     -667.498,     -1.96761
     -667.086,     -1.89330
     -666.674,     -2.00275
     -666.261,     -2.18221
     -665.849,     -2.26245
     -665.437,     -2.05619
     -665.024,     -1.46340
     -664.612,    -0.587726
     -664.200,     0.307567
     -663.788,      1.02783
     -663.375,      1.61142
     -662.963,      2.21300
     -662.551,      2.86747
     -662.138,      3.45468
     -661.726,      3.84868
     -661.314,      3.97319
     -660.902,      3.72475
     -660.489,      3.00027
     -660.077,      1.88746
     -659.665,     0.759611
     -659.252,    0.0785317
     -658.840,    0.0567329
     -658.428,     0.503594
     -658.016,     0.992824
     -657.603,      1.17186
     -657.191,     0.940722
     -656.779,     0.428870
     -656.366,    -0.104461
     -655.954,    -0.361957
     -655.542,    -0.126965
     -655.129,     0.601887
     -654.717,      1.58667
     -654.305,      2.51819
     -653.893,      3.25671
     -653.480,      3.89295
     -653.068,      4.54711
     -652.656,      5.16768
     -652.243,      5.60120
     -651.831,      5.79826
     -651.419,      5.83634
     -651.007,      5.77048
     -650.594,      5.56644
     -650.182,      5.14882
     -649.770,      4.42856
     -649.357,      3.35521
     -648.945,      2.05390
     -648.533,     0.844196
     -648.121,   0.00900113
     -647.708,    -0.425531
     -647.296,    -0.628251
     -646.884,    -0.753653
     -646.471,    -0.866618
     -646.059,     -1.01404
     -645.647,     -1.25756
     -645.234,     -1.59385
     -644.822,     -1.88546
     -644.410,     -1.94853
     -643.998,     -1.74461
     -643.585,     -1.44002
     -643.173,     -1.23960
     -642.761,     -1.21589
     -642.348,     -1.34051
     -641.936,     -1.58797
     -641.524,     -1.88553
     -641.112,     -2.00019
     -640.699,     -1.64799
     -640.287,    -0.802291
     -639.875,     0.187122
     -639.462,     0.879057
     -639.050,      1.14876
     -638.638,      1.28576
     -638.226,      1.68819
     -637.813,      2.45425
     -637.401,      3.24654
     -636.989,      3.53893
     -636.576,      3.01577
     -636.164,      1.80847
     -635.752,     0.438208
     -635.340,    -0.480762
     -634.927,    -0.615391
     -634.515,    -0.112940
     -634.103,     0.547643
     -633.690,     0.913634
     -633.278,     0.800972
     -632.866,     0.293108
     -632.453,    -0.364914
     -632.041,    -0.872847
     -631.629,     -1.01881
     -631.217,    -0.812333
     -630.804,    -0.453677
     -630.392,    -0.146130
     -629.980,    0.0618658
     -629.567,     0.281703
     -629.155,     0.655121
     -628.743,      1.17938
     -628.331,      1.62567
     -627.918,      1.66417
     -627.506,      1.13275
     -627.094,     0.201204
     -626.681,    -0.760428
     -626.269,     -1.47864
     -625.857,     -1.89623
     -625.445,     -2.00901
     -625.032,     -1.70531
     -624.620,    -0.880650
     -624.208,     0.306887
     -623.795,      1.41105
     -623.383,      2.00579
     -622.971,      1.99817
     -622.559,      1.59629
     -622.146,      1.01111
     -621.734,     0.266111
     -621.322,    -0.704983
     -620.909,     -1.85253
     -620.497,     -2.96034
     -620.085,     -3.79256
     -619.672,     -4.25256
     -619.260,     -4.37672
     -618.848,     -4.19441
     -618.436,     -3.64554
     -618.023,     -2.67750
     -617.611,     -1.41529
     -617.199,    -0.172101
     -616.786,     0.760863
     -616.374,      1.30882
     -615.962,      1.56945
     -615.550,      1.64570
     -615.137,      1.59562
     -614.725,      1.48903
     -614.313,      1.41388
     -613.900,      1.42200
     -613.488,      1.49174
     -613.076,      1.51618
     -612.664,      1.32508
     -612.251,     0.777254
     -611.839,    -0.116888
     -611.427,     -1.14922
     -611.014,     -2.00906
     -610.602,     -2.48125
     -610.190,     -2.58490
     -609.778,     -2.49885
     -609.365,     -2.34757
     -608.953,     -2.09176
     -608.541,     -1.64221
     -608.128,     -1.05821
     -607.716,    -0.579705
     -607.304,    -0.424725
     -606.891,    -0.600494
     -606.479,    -0.974558
     -606.067,     -1.46328
     -605.655,     -2.03297
     -605.242,     -2.55958
     -604.830,     -2.83038
     -604.418,     -2.69274
     -604.005,     -2.12755
     -603.593,     -1.24018
     -603.181,    -0.297388
     -602.769,     0.295385
     -602.356,     0.249345
     -601.944,    -0.302331
     -601.532,    -0.842414
     -601.119,    -0.893082
     -600.707,    -0.398419
     -600.295,     0.318171
     -599.883,     0.921914
     -599.470,      1.32767
     -599.058,      1.59609
     -598.646,      1.67027
     -598.233,      1.35033
     -597.821,     0.555145
     -597.409,    -0.489538
     -596.997,     -1.37814
     -596.584,     -1.80362
     -596.172,     -1.73861
     -595.760,     -1.43446
     -595.347,     -1.21531
     -594.935,     -1.17042
     -594.523,     -1.06467
     -594.110,    -0.614080
     -593.698,     0.202849
     -593.286,      1.16179
     -592.874,      2.02806
     -592.461,      2.65993
     -592.049,      2.93608
     -591.637,      2.76517
     -591.224,      2.22785
     -590.812,      1.57821
     -590.400,      1.02102
     -589.988,     0.573933
     -589.575,     0.200243
     -589.163,   -0.0244000
     -588.751,    0.0458159
     -588.338,     0.470208
     -587.926,      1.15909
     -587.514,      1.93112
     -587.102,      2.58077
     -586.689,      2.92543
     -586.277,      2.91498
     -585.865,      2.77283
     -585.452,      2.92679
     -585.040,      3.63442
     -584.628,      4.66058
     -584.216,      5.42579
     -583.803,      5.49443
     -583.391,      4.88362
     -582.979,      3.98230
     -582.566,      3.30306
     -582.154,      3.24473
     -581.742,      3.87950
     -581.329,      4.88232
     -580.917,      5.74902
     -580.505,      6.16059
     -580.093,      6.15640
     -579.680,      5.97821
     -579.268,      5.78770
     -578.856,      5.56838
     -578.443,      5.30188
     -578.031,      5.19223
     -577.619,      5.63634
     -577.207,      6.90018
     -576.794,      8.79772
     -576.382,      10.7141
     -575.970,      11.9839
     -575.557,      12.2938
     -575.145,      11.8105
     -574.733,      11.0218
     -574.321,      10.4436
     -573.908,      10.3102
     -573.496,      10.4002
     -573.084,      10.2134
     -572.671,      9.46588
     -572.259,      8.43863
     -571.847,      7.75817
     -571.435,      7.80794
     -571.022,      8.38638
     -570.610,      8.92441
     -570.198,      8.99273
     -569.785,      8.63226
     -569.373,      8.27909
     -568.961,      8.37774
     -568.548,      8.98687
     -568.136,      9.70258
     -567.724,      9.97017
     -567.312,      9.50729
     -566.899,      8.47901
     -566.487,      7.32466
     -566.075,      6.44032
     -565.662,      5.97872
     -565.250,      5.85027
     -564.838,      5.84009
     -564.426,      5.75138
     -564.013,      5.51764
     -563.601,      5.19978
     -563.189,      4.85211
     -562.776,      4.43644
     -562.364,      3.96242
     -561.952,      3.69445
     -561.540,      4.05196
     -561.127,      5.17827
     -560.715,      6.65564
     -560.303,      7.75133
     -559.890,      7.97118
     -559.478,      7.37777
     -559.066,      6.43868
     -558.654,      5.63622
     -558.241,      5.18478
     -557.829,      4.99184
     -557.417,      4.79903
     -557.004,      4.39328
     -556.592,      3.77091
     -556.180,      3.13408
     -555.767,      2.70831
     -555.355,      2.53818
     -554.943,      2.45006
     -554.531,      2.22458
     -554.118,      1.82072
     -553.706,      1.41330
     -553.294,      1.20033
     -552.881,      1.21643
     -552.469,      1.34495
     -552.057,      1.42704
