# Freq.: 9.8120000e+09Hz; t_int: 166.95923h; (l,b) = (110.28313, 2.4852640)
     -240.040,      0.00000
     -239.667,      0.00000
     -239.294,      0.00000
     -238.921,      0.00000
     -238.548,      0.00000
     -238.175,      0.00000
     -237.802,      0.00000
     -237.429,      0.00000
     -237.056,      0.00000
     -236.683,      0.00000
     -236.310,      0.00000
     -235.937,    -0.354465
     -235.564,    -0.263739
     -235.191,    -0.161292
     -234.818,   -0.0964122
     -234.445,   -0.0823958
     -234.072,    -0.186704
     -233.700,    -0.500596
     -233.327,     -1.00361
     -232.954,     -1.56229
     -232.581,     -2.07911
     -232.208,     -2.54060
     -231.835,     -2.90284
     -231.462,     -3.03732
     -231.089,     -2.82020
     -230.716,     -2.19996
     -230.343,     -1.19212
     -229.970,    0.0724494
     -229.597,      1.27444
     -229.224,      2.00115
     -228.851,      1.98797
     -228.478,      1.25333
     -228.105,    0.0354471
     -227.732,     -1.33487
     -227.359,     -2.53811
     -226.986,     -3.34983
     -226.613,     -3.68745
     -226.240,     -3.60388
     -225.867,     -3.23502
     -225.494,     -2.70669
     -225.121,     -2.05492
     -224.748,     -1.27634
     -224.375,    -0.517824
     -224.003,    -0.160746
     -223.630,    -0.567938
     -223.257,     -1.69681
     -222.884,     -3.03404
     -222.511,     -3.93404
     -222.138,     -4.01399
     -221.765,     -3.32490
     -221.392,     -2.26699
     -221.019,     -1.33770
     -220.646,    -0.881857
     -220.273,    -0.993335
     -219.900,     -1.55187
     -219.527,     -2.29629
     -219.154,     -2.91033
     -218.781,     -3.13437
     -218.408,     -2.85427
     -218.035,     -2.09528
     -217.662,    -0.943315
     -217.289,     0.496266
     -216.916,      2.07137
     -216.543,      3.59115
     -216.170,      4.90960
     -215.797,      5.96108
     -215.424,      6.68366
     -215.051,      6.97768
     -214.678,      6.81725
     -214.306,      6.35362
     -213.933,      5.78926
     -213.560,      5.15520
     -213.187,      4.33115
     -212.814,      3.28362
     -212.441,      2.15945
     -212.068,      1.14502
     -211.695,     0.350262
     -211.322,    -0.165432
     -210.949,    -0.350524
     -210.576,    -0.180825
     -210.203,     0.295164
     -209.830,     0.944403
     -209.457,      1.62009
     -209.084,      2.26939
     -208.711,      2.91828
     -208.338,      3.50494
     -207.965,      3.80261
     -207.592,      3.60557
     -207.219,      2.96967
     -206.846,      2.19884
     -206.473,      1.59959
     -206.100,      1.27251
     -205.727,      1.09323
     -205.354,     0.833855
     -204.981,     0.323467
     -204.609,    -0.428160
     -204.236,     -1.20680
     -203.863,     -1.70887
     -203.490,     -1.74079
     -203.117,     -1.33851
     -202.744,    -0.694917
     -202.371,   -0.0110367
     -201.998,     0.531579
     -201.625,     0.712046
     -201.252,     0.341650
     -200.879,    -0.517356
     -200.506,     -1.45722
     -200.133,     -1.93818
     -199.760,     -1.63415
     -199.387,    -0.618282
     -199.014,     0.676273
     -198.641,      1.63542
     -198.268,      1.76468
     -197.895,      1.02342
     -197.522,    -0.102375
     -197.149,    -0.944081
     -196.776,     -1.10761
     -196.403,    -0.629371
     -196.030,     0.184934
     -195.657,     0.969407
     -195.284,      1.43699
     -194.911,      1.49913
     -194.539,      1.30914
     -194.166,      1.12068
     -193.793,      1.08293
     -193.420,      1.20615
     -193.047,      1.47438
     -192.674,      1.87563
     -192.301,      2.29149
     -191.928,      2.44626
     -191.555,      2.06965
     -191.182,      1.12680
     -190.809,    -0.153564
     -190.436,     -1.46751
     -190.063,     -2.61931
     -189.690,     -3.56901
     -189.317,     -4.34941
     -188.944,     -4.89719
     -188.571,     -4.97594
     -188.198,     -4.37324
     -187.825,     -3.18368
     -187.452,     -1.78298
     -187.079,    -0.508289
     -186.706,     0.523563
     -186.333,      1.27122
     -185.960,      1.59444
     -185.587,      1.34230
     -185.214,     0.592912
     -184.842,    -0.272195
     -184.469,    -0.779781
     -184.096,    -0.681915
     -183.723,    -0.103999
     -183.350,     0.577821
     -182.977,     0.982107
     -182.604,     0.888873
     -182.231,     0.287702
     -181.858,    -0.634641
     -181.485,     -1.56529
     -181.112,     -2.18439
     -180.739,     -2.25247
     -180.366,     -1.65677
     -179.993,    -0.481947
     -179.620,     0.946697
     -179.247,      2.17692
     -178.874,      2.87018
     -178.501,      2.99324
     -178.128,      2.82967
     -177.755,      2.77929
     -177.382,      3.04439
     -177.009,      3.45507
     -176.636,      3.60757
     -176.263,      3.18780
     -175.890,      2.21444
     -175.517,      1.04642
     -175.145,     0.140158
     -174.772,    -0.303391
     -174.399,    -0.511540
     -174.026,    -0.930182
     -173.653,     -1.79774
     -173.280,     -2.91839
     -172.907,     -3.82662
     -172.534,     -4.10984
     -172.161,     -3.59627
     -171.788,     -2.39963
     -171.415,    -0.919146
     -171.042,     0.258666
     -170.669,     0.624338
     -170.296,    0.0413847
     -169.923,     -1.16339
     -169.550,     -2.40614
     -169.177,     -3.19057
     -168.804,     -3.31856
     -168.431,     -2.85394
     -168.058,     -1.98383
     -167.685,    -0.956278
     -167.312,   -0.0758030
     -166.939,     0.375527
     -166.566,     0.288358
     -166.193,    -0.222870
     -165.820,    -0.952612
     -165.448,     -1.76300
     -165.075,     -2.59130
     -164.702,     -3.36951
     -164.329,     -4.01216
     -163.956,     -4.44979
     -163.583,     -4.61303
     -163.210,     -4.42949
     -162.837,     -3.91965
     -162.464,     -3.27149
     -162.091,     -2.72469
     -161.718,     -2.33524
     -161.345,     -1.88169
     -160.972,     -1.06665
     -160.599,     0.134160
     -160.226,      1.33386
     -159.853,      2.02052
     -159.480,      2.03346
     -159.107,      1.72070
     -158.734,      1.58734
     -158.361,      1.85181
     -157.988,      2.39585
     -157.615,      3.01187
     -157.242,      3.51668
     -156.869,      3.67062
     -156.496,      3.21421
     -156.123,      2.12308
     -155.751,     0.788308
     -155.378,    -0.176707
     -155.005,    -0.413803
     -154.632,    -0.118894
     -154.259,     0.191342
     -153.886,     0.202249
     -153.513,    0.0336295
     -153.140,    0.0111039
     -152.767,     0.330687
     -152.394,     0.920976
     -152.021,      1.49615
     -151.648,      1.72859
     -151.275,      1.48689
     -150.902,     0.961890
     -150.529,     0.507778
     -150.156,     0.313102
     -149.783,     0.239806
     -149.410,  -0.00682301
     -149.037,    -0.599426
     -148.664,     -1.51944
     -148.291,     -2.68845
     -147.918,     -4.01902
     -147.545,     -5.29676
     -147.172,     -6.13369
     -146.799,     -6.15792
     -146.426,     -5.27476
     -146.053,     -3.75711
     -145.681,     -2.10847
     -145.308,    -0.800763
     -144.935,   -0.0610012
     -144.562,     0.135159
     -144.189,   -0.0972523
     -143.816,    -0.639947
     -143.443,     -1.27750
     -143.070,     -1.63333
     -142.697,     -1.35455
     -142.324,    -0.416675
     -141.951,     0.797611
     -141.578,      1.77498
     -141.205,      2.23686
     -140.832,      2.24714
     -140.459,      2.04951
     -140.086,      1.87570
     -139.713,      1.83480
     -139.340,      1.85791
     -138.967,      1.75006
     -138.594,      1.36900
     -138.221,     0.775343
     -137.848,     0.212152
     -137.475,   -0.0542835
     -137.102,    0.0896522
     -136.729,     0.534284
     -136.356,      1.04589
     -135.984,      1.45811
     -135.611,      1.76646
     -135.238,      2.03258
     -134.865,      2.22881
     -134.492,      2.20798
     -134.119,      1.81294
     -133.746,      1.01926
     -133.373,    0.0272958
     -133.000,    -0.769845
     -132.627,    -0.989305
     -132.254,    -0.515737
     -131.881,     0.415940
     -131.508,      1.39208
     -131.135,      2.09699
     -130.762,      2.48149
     -130.389,      2.70523
     -130.016,      2.92342
     -129.643,      3.14551
     -129.270,      3.29798
     -128.897,      3.35341
     -128.524,      3.33670
     -128.151,      3.24050
     -127.778,      2.99956
     -127.405,      2.54365
     -127.032,      1.83242
     -126.659,     0.845189
     -126.287,    -0.394964
     -125.914,     -1.73154
     -125.541,     -2.83265
     -125.168,     -3.32218
     -124.795,     -3.02177
     -124.422,     -2.07815
     -124.049,    -0.847283
     -123.676,     0.334017
     -123.303,      1.27336
     -122.930,      1.89609
     -122.557,      2.16662
     -122.184,      2.03686
     -121.811,      1.44683
     -121.438,     0.387646
     -121.065,     -1.00738
     -120.692,     -2.43239
     -120.319,     -3.51580
     -119.946,     -4.03525
     -119.573,     -4.07434
     -119.200,     -3.95273
     -118.827,     -3.95885
     -118.454,     -4.11701
     -118.081,     -4.20887
     -117.708,     -4.02922
     -117.335,     -3.59736
     -116.962,     -3.08734
     -116.590,     -2.57898
     -116.217,     -1.92791
     -115.844,    -0.879981
     -115.471,     0.684608
     -115.098,      2.55313
     -114.725,      4.17737
     -114.352,      4.94091
     -113.979,      4.56610
     -113.606,      3.32609
     -113.233,      1.84051
     -112.860,     0.621035
     -112.487,    -0.246912
     -112.114,     -1.03755
     -111.741,     -1.99128
     -111.368,     -2.93691
     -110.995,     -3.31826
     -110.622,     -2.65532
     -110.249,     -1.01714
     -109.876,     0.944352
     -109.503,      2.43991
     -109.130,      3.09340
     -108.757,      3.14493
     -108.384,      3.15064
     -108.011,      3.45370
     -107.638,      3.89848
     -107.265,      4.02367
     -106.893,      3.51838
     -106.520,      2.51053
     -106.147,      1.44925
     -105.774,     0.717066
     -105.401,     0.340559
     -105.028,    0.0435917
     -104.655,    -0.475392
     -104.282,     -1.32845
     -103.909,     -2.39911
     -103.536,     -3.42018
     -103.163,     -4.12167
     -102.790,     -4.39852
     -102.417,     -4.36933
     -102.044,     -4.24772
     -101.671,     -4.13985
     -101.298,     -3.96692
     -100.925,     -3.57398
     -100.552,     -2.90048
     -100.179,     -2.05828
     -99.8062,     -1.27744
     -99.4333,    -0.778796
     -99.0603,    -0.638476
     -98.6874,    -0.716030
     -98.3144,    -0.742951
     -97.9414,    -0.549415
     -97.5685,    -0.211050
     -97.1955,    0.0483155
     -96.8225,    0.0863789
     -96.4496,   -0.0266272
     -96.0766,   -0.0806883
     -95.7037,    0.0703008
     -95.3307,     0.351752
     -94.9577,     0.509064
     -94.5848,     0.334189
     -94.2118,    -0.117950
     -93.8389,    -0.552411
     -93.4659,    -0.696916
     -93.0929,    -0.520224
     -92.7200,    -0.178615
     -92.3470,     0.195000
     -91.9740,     0.603517
     -91.6011,      1.12825
     -91.2281,      1.80683
     -90.8552,      2.55584
     -90.4822,      3.18196
     -90.1092,      3.46717
     -89.7363,      3.28466
     -89.3633,      2.69534
     -88.9903,      1.96032
     -88.6174,      1.41433
     -88.2444,      1.25204
     -87.8715,      1.40463
     -87.4985,      1.62321
     -87.1255,      1.67444
     -86.7526,      1.45984
     -86.3796,     0.988846
     -86.0067,     0.323727
     -85.6337,    -0.365931
     -85.2607,    -0.742643
     -84.8878,    -0.464158
     -84.5148,     0.521640
     -84.1418,      1.91644
     -83.7689,      3.31155
     -83.3959,      4.41241
     -83.0230,      5.07050
     -82.6500,      5.25936
     -82.2770,      5.08481
     -81.9041,      4.72313
     -81.5311,      4.27038
     -81.1581,      3.69648
     -80.7852,      2.99862
     -80.4122,      2.35325
     -80.0393,      2.04451
     -79.6663,      2.23226
     -79.2933,      2.82336
     -78.9204,      3.59106
     -78.5474,      4.39975
     -78.1745,      5.27410
     -77.8015,      6.25260
     -77.4285,      7.21892
     -77.0556,      7.90248
     -76.6826,      8.05340
     -76.3096,      7.65239
     -75.9367,      6.98177
     -75.5637,      6.46059
     -75.1908,      6.34561
     -74.8178,      6.57670
     -74.4448,      6.93266
     -74.0719,      7.30221
     -73.6989,      7.73804
     -73.3260,      8.27065
     -72.9530,      8.76721
     -72.5800,      9.00884
     -72.2071,      8.85305
     -71.8341,      8.29463
     -71.4611,      7.44480
     -71.0882,      6.52946
     -70.7152,      5.84564
     -70.3423,      5.59192
     -69.9693,      5.73636
     -69.5963,      6.13462
     -69.2234,      6.77531
     -68.8504,      7.82883
     -68.4775,      9.42261
     -68.1045,      11.3866
     -67.7315,      13.2429
     -67.3586,      14.5008
     -66.9856,      15.0229
     -66.6126,      15.0975
     -66.2397,      15.1311
     -65.8667,      15.3001
     -65.4938,      15.5067
     -65.1208,      15.5834
     -64.7478,      15.4591
     -64.3749,      15.1479
     -64.0019,      14.6842
     -63.6289,      14.1356
     -63.2560,      13.6248
     -62.8830,      13.2720
     -62.5101,      13.1415
     -62.1371,      13.2622
     -61.7641,      13.6152
     -61.3912,      14.0379
     -61.0182,      14.2166
     -60.6453,      13.8765
     -60.2723,      13.0051
     -59.8993,      11.8837
     -59.5264,      10.9243
     -59.1534,      10.4467
     -58.7804,      10.5110
     -58.4075,      10.9021
     -58.0345,      11.3007
     -57.6616,      11.5036
     -57.2886,      11.4950
     -56.9156,      11.3551
     -56.5427,      11.1509
     -56.1697,      10.9158
     -55.7968,      10.7009
     -55.4238,      10.6031
     -55.0508,      10.6885
     -54.6779,      10.8659
     -54.3049,      10.8729
     -53.9319,      10.4507
     -53.5590,      9.60093
     -53.1860,      8.70483
     -52.8131,      8.31513
     -52.4401,      8.70869
     -52.0671,      9.61425
     -51.6942,      10.4005
     -51.3212,      10.5026
     -50.9482,      9.68937
     -50.5753,      8.08501
     -50.2023,      6.08041
     -49.8294,      4.16572
     -49.4564,      2.68866
     -49.0834,      1.71187
     -48.7105,      1.13614
     -48.3375,     0.949891
     -47.9646,      1.28190
     -47.5916,      2.17232
     -47.2186,      3.34996
     -46.8457,      4.32752
     -46.4727,      4.75869
     -46.0997,      4.69049
     -45.7268,      4.46011
     -45.3538,      4.36575
     -44.9809,      4.44454
     -44.6079,      4.52549
     -44.2349,      4.43036
     -43.8620,      4.10284
     -43.4890,      3.58779
     -43.1161,      2.95035
     -42.7431,      2.25466
     -42.3701,      1.60252
     -41.9972,      1.13143
     -41.6242,     0.949393
     -41.2512,      1.10394
     -40.8783,      1.61951
     -40.5053,      2.49676
     -40.1324,      3.61418
     -39.7594,      4.66152
     -39.3864,      5.25082
     -39.0135,      5.12088
     -38.6405,      4.24293
     -38.2675,      2.81468
     -37.8946,      1.22773
     -37.5216,   -0.0415852
     -37.1487,    -0.667401
     -36.7757,    -0.674623
     -36.4027,    -0.400665
     -36.0298,    -0.239666
     -35.6568,    -0.385418
     -35.2839,    -0.767552
     -34.9109,     -1.19429
     -34.5379,     -1.53593
     -34.1650,     -1.79210
     -33.7920,     -2.05254
     -33.4190,     -2.42627
     -33.0461,     -2.94587
     -32.6731,     -3.48830
     -32.3002,     -3.83633
     -31.9272,     -3.86825
     -31.5542,     -3.66007
     -31.1813,     -3.37291
     -30.8083,     -3.05588
     -30.4354,     -2.57118
     -30.0624,     -1.73041
     -29.6894,    -0.559018
     -29.3165,     0.558667
     -28.9435,      1.07933
     -28.5705,     0.724067
     -28.1976,    -0.299722
     -27.8246,     -1.48728
     -27.4517,     -2.38758
     -27.0787,     -2.80410
     -26.7057,     -2.79849
     -26.3328,     -2.56563
     -25.9598,     -2.24452
     -25.5868,     -1.82095
     -25.2139,     -1.24099
     -24.8409,    -0.569094
     -24.4680,    0.0489840
     -24.0950,     0.534356
     -23.7220,     0.899034
     -23.3491,      1.15514
     -22.9761,      1.26561
     -22.6032,      1.17903
     -22.2302,     0.884548
     -21.8572,     0.413255
     -21.4843,    -0.203999
     -21.1113,    -0.917640
     -20.7383,     -1.57157
     -20.3654,     -1.90969
     -19.9924,     -1.74506
     -19.6195,     -1.11140
     -19.2465,    -0.223178
     -18.8735,     0.672886
     -18.5006,      1.36941
     -18.1276,      1.68590
     -17.7547,      1.50315
     -17.3817,     0.868419
     -17.0087,    0.0352195
     -16.6358,    -0.667183
     -16.2628,     -1.03899
     -15.8898,     -1.08648
     -15.5169,    -0.921118
     -15.1439,    -0.642515
     -14.7710,    -0.335216
     -14.3980,    -0.105009
     -14.0250,   -0.0416306
     -13.6521,    -0.160781
     -13.2791,    -0.422435
     -12.9061,    -0.770887
     -12.5332,     -1.11546
     -12.1602,     -1.32251
     -11.7873,     -1.30170
     -11.4143,     -1.10221
     -11.0413,    -0.882849
     -10.6684,    -0.762410
     -10.2954,    -0.691056
     -9.92245,    -0.475549
     -9.54949,    0.0540488
     -9.17653,     0.904479
     -8.80357,      1.94678
     -8.43060,      3.04007
     -8.05764,      4.06000
     -7.68468,      4.80353
     -7.31172,      4.97796
     -6.93876,      4.40824
     -6.56580,      3.25360
     -6.19283,      1.93879
     -5.81987,     0.865448
     -5.44691,     0.229453
     -5.07395,    0.0575485
     -4.70099,     0.295681
     -4.32803,     0.825197
     -3.95506,      1.45480
     -3.58210,      1.97549
     -3.20914,      2.28258
     -2.83618,      2.45105
     -2.46322,      2.64888
     -2.09026,      2.95294
     -1.71729,      3.24613
     -1.34433,      3.27104
    -0.971370,      2.79771
    -0.598408,      1.81058
    -0.225446,     0.558862
     0.147516,    -0.604680
     0.520478,     -1.43227
     0.893439,     -1.82621
      1.26640,     -1.74494
      1.63936,     -1.16296
      2.01232,    -0.177018
      2.38529,     0.877930
      2.75825,      1.52627
      3.13121,      1.47798
      3.50417,     0.886951
      3.87713,     0.238492
      4.25010,   -0.0565670
      4.62306,    0.0454740
      4.99602,     0.315826
      5.36898,     0.570957
      5.74194,     0.821706
      6.11490,      1.11496
      6.48787,      1.33829
      6.86083,      1.27038
      7.23379,     0.798194
      7.60675,    0.0500797
      7.97971,    -0.635852
      8.35268,    -0.855714
      8.72564,    -0.347350
      9.09860,     0.840835
      9.47156,      2.35471
      9.84452,      3.71130
      10.2175,      4.50481
      10.5904,      4.52991
      10.9634,      3.81258
      11.3364,      2.56806
      11.7093,      1.09614
      12.0823,    -0.341368
      12.4553,     -1.58312
      12.8282,     -2.54621
      13.2012,     -3.17522
      13.5741,     -3.43054
      13.9471,     -3.34189
      14.3201,     -3.07146
      14.6930,     -2.87062
      15.0660,     -2.91919
      15.4389,     -3.19939
      15.8119,     -3.50585
      16.1849,     -3.53310
      16.5578,     -3.00758
      16.9308,     -1.89057
      17.3038,    -0.505218
      17.6767,     0.656430
      18.0497,      1.34507
      18.4226,      1.72353
      18.7956,      2.09067
      19.1686,      2.51705
      19.5415,      2.80338
      19.9145,      2.71550
      20.2875,      2.17943
      20.6604,      1.30468
      21.0334,     0.327037
      21.4063,    -0.475583
      21.7793,    -0.914590
      22.1523,    -0.992511
      22.5252,    -0.866477
      22.8982,    -0.742275
      23.2711,    -0.818446
      23.6441,     -1.21913
      24.0171,     -1.86482
      24.3900,     -2.45828
      24.7630,     -2.69423
